0.0141600,0.8105100,0.0484657,0.1268643
0.0172005,0.2558402,0.1980506,0.5289086
0.0115880,0.8964258,0.0204784,0.0715076
0.0533398,0.6907026,0.0443953,0.2115622
0.0314006,0.7852465,0.0410290,0.1423239
0.0259232,0.4555320,0.0870891,0.4314556
0.0445721,0.4840138,0.0692332,0.4021809
0.0139400,0.7914620,0.0524793,0.1421188
0.0159049,0.8174847,0.0453992,0.1212112
0.0214635,0.2481601,0.1158772,0.6144993
0.0226157,0.1306991,0.2353075,0.6113777
0.0000005,0.0028433,0.9848149,0.0123414
0.2651780,0.5731908,0.0051149,0.1565163
0.0248930,0.8444670,0.0245137,0.1061262
0.0283706,0.7060837,0.0559469,0.2095988
0.0419373,0.6265318,0.0555977,0.2759331
0.0174686,0.3561254,0.1543570,0.4720491
0.4756895,0.0903421,0.0071069,0.4268615
0.0033738,0.8998273,0.0415065,0.0552923
0.9281781,0.0188837,0.0004171,0.0525210
0.0062493,0.8427050,0.0521629,0.0988827
0.8367252,0.0618186,0.0007639,0.1006922
0.0579074,0.0768954,0.0700088,0.7951884
0.0092130,0.0763836,0.2427550,0.6716485
0.0097787,0.2157234,0.2083527,0.5661452
0.0733027,0.0339398,0.0311692,0.8615882
0.0466674,0.4919324,0.0728502,0.3885500
0.0069007,0.8229106,0.0660254,0.1041631
0.0039457,0.0964435,0.3762249,0.5233859
0.0002332,0.1987512,0.6969041,0.1041116
0.0158305,0.1877332,0.1968559,0.5995805
0.0389874,0.6918951,0.0501224,0.2189951
0.7716464,0.0808110,0.0015125,0.1460300
0.0000018,0.0119820,0.9606906,0.0273256
0.0246959,0.6672930,0.0664537,0.2415574
0.0437500,0.7386633,0.0422398,0.1753468
0.1997162,0.2097667,0.0622263,0.5282907
0.0599381,0.7138247,0.0399391,0.1862980
0.0064797,0.1571199,0.2642799,0.5721205
0.0119869,0.0823120,0.1237046,0.7819966
0.0082170,0.8682761,0.0420521,0.0814547
0.0025065,0.8832329,0.0504450,0.0638158
0.0200010,0.3841479,0.1362115,0.4596396
0.0293846,0.5279880,0.0710448,0.3715824
0.0017688,0.9158743,0.0407965,0.0415602
0.0266459,0.7706065,0.0535039,0.1492437
0.0335761,0.5647801,0.0654877,0.3361560
0.0185836,0.4558864,0.1668934,0.3586366
0.0044414,0.8914422,0.0417399,0.0623766
0.1570481,0.4749061,0.0368002,0.3312456
0.0068113,0.1077677,0.2116175,0.6738034
0.4210109,0.3905602,0.0049530,0.1834759
0.0381612,0.3672113,0.0913570,0.5032705
0.0199268,0.3527552,0.0943890,0.5329290
0.0787896,0.6863627,0.0304495,0.2043982
0.0215575,0.6819729,0.0706839,0.2257856
0.0083096,0.8306153,0.0553241,0.1057510
0.8099483,0.0450584,0.0018032,0.1431902
0.9015061,0.0143963,0.0003132,0.0837845
0.0139954,0.1625633,0.2323202,0.5911211
0.0067475,0.8382698,0.0558536,0.0991291
0.0304672,0.5379104,0.0695691,0.3620532
0.0266877,0.7676659,0.0429801,0.1626664
0.0291040,0.5253661,0.0714320,0.3740980
0.0153049,0.0533449,0.1001980,0.8311522
0.0039944,0.8948032,0.0416557,0.0595468
0.0267798,0.4925998,0.0893863,0.3912342
0.0118321,0.2631415,0.1814286,0.5435978
0.0318809,0.6227114,0.0624169,0.2829908
0.0046514,0.7762841,0.0578798,0.1611847
0.0133403,0.6358498,0.1225953,0.2282146
0.0000001,0.0025278,0.9785045,0.0189676
0.0022682,0.9102319,0.0410930,0.0464067
0.0014342,0.2978653,0.4325900,0.2681105
0.0313938,0.6389708,0.0672390,0.2623965
0.7977485,0.0711337,0.0012092,0.1299086
0.0112478,0.6992609,0.1053872,0.1841041
0.0656086,0.7003757,0.0404877,0.1935280
0.0000324,0.0296619,0.9069497,0.0633560
0.0124182,0.1072581,0.1352410,0.7450826
0.0056328,0.1005898,0.2950792,0.5986981
0.0483412,0.3932196,0.1197402,0.4386990
0.0218412,0.7162126,0.0791913,0.1827549
0.0056115,0.8433339,0.0533831,0.0976714
0.0331312,0.5610769,0.0660578,0.3397341
0.0198372,0.7248979,0.0852005,0.1700643
0.0129826,0.0896417,0.1227828,0.7745928
0.0351396,0.8067299,0.0254586,0.1326719
0.0068091,0.8880447,0.0350612,0.0700850
0.0241155,0.6764328,0.0610506,0.2384010
0.0078440,0.1902290,0.2130908,0.5888362
0.0000002,0.0080333,0.9730748,0.0188916
0.0621274,0.4121844,0.0735566,0.4521316
0.0102733,0.8437973,0.0466587,0.0992706
0.0091005,0.8637276,0.0420690,0.0851030
0.6943487,0.1237124,0.0054034,0.1765357
0.0072761,0.8159401,0.0714265,0.1053572
0.0012613,0.9226304,0.0403565,0.0357518
0.0598314,0.7189720,0.0390442,0.1821523
0.0472725,0.6290444,0.0578045,0.2658786
0.3613898,0.0674453,0.0391853,0.5319795
0.0681124,0.2977669,0.0800430,0.5540777
0.0877069,0.7094648,0.0244595,0.1783686
0.0333143,0.6051778,0.0654057,0.2961020
0.0256687,0.1603010,0.1475859,0.6664444
0.0147748,0.6969749,0.0676535,0.2205967
0.0726736,0.5760301,0.0567049,0.2945914
0.0001418,0.0697568,0.7411669,0.1889344
0.0296311,0.3662771,0.0973561,0.5067357
0.1038390,0.6614798,0.0283241,0.2063570
0.0598314,0.7189720,0.0390442,0.1821523
0.0268165,0.7464883,0.0414620,0.1852332
0.0355089,0.5803484,0.0630640,0.3210787
0.3531977,0.2697291,0.0360094,0.3410639
0.0002091,0.8211186,0.1082180,0.0704543
0.0500191,0.6740776,0.0474080,0.2284953
0.0055172,0.7953105,0.0566587,0.1425135
0.0274636,0.7815185,0.0333550,0.1576630
0.0002678,0.8611960,0.0680274,0.0705088
0.0167161,0.6817751,0.0719293,0.2295793
0.0279760,0.5559471,0.1310691,0.2850076
0.0142090,0.7778021,0.0547815,0.1532075
0.0344827,0.5721864,0.0643402,0.3289907
0.0000491,0.1025593,0.7975421,0.0998494
0.0161178,0.3764848,0.0915440,0.5158534
0.0300977,0.5345581,0.0700696,0.3652745
0.0739961,0.2421975,0.0760746,0.6077319
0.1067119,0.6041102,0.0291400,0.2600380
0.0238259,0.8073042,0.0415122,0.1273576
0.0019098,0.8369756,0.0596905,0.1014241
0.0524162,0.6862341,0.0452139,0.2161359
0.0451600,0.7325602,0.0403823,0.1818975
0.0132589,0.1565957,0.1462665,0.6838789
0.0702454,0.5783013,0.0551404,0.2963130
0.0063058,0.0696828,0.2350730,0.6889384
0.9178791,0.0251500,0.0002861,0.0566846
0.0344691,0.6859916,0.0531169,0.2264223
0.0817685,0.5003511,0.0634608,0.3544195
0.0009771,0.9271227,0.0400013,0.0318988
0.1932060,0.3706149,0.0561694,0.3800098
0.0252996,0.5974433,0.0928190,0.2844380
0.0550123,0.4189762,0.0746114,0.4514001
0.0568597,0.7135246,0.0397743,0.1898414
0.0059088,0.8655853,0.0465557,0.0819502
0.0076212,0.8632886,0.0449196,0.0841705
0.0296589,0.7231226,0.0550090,0.1922095
0.0033762,0.8998064,0.0415072,0.0553101
0.0010315,0.8459017,0.0618299,0.0912368
0.1218791,0.5929412,0.0434325,0.2417473
0.0101703,0.0285419,0.1780975,0.7831903
0.5098169,0.2914349,0.0047073,0.1940408
0.0501740,0.5417023,0.0636876,0.3444361
0.0577576,0.5352836,0.0626367,0.3443221
0.0081902,0.6828279,0.1584372,0.1505447
0.0464947,0.6491369,0.0522072,0.2521611
0.0575039,0.5892668,0.0565265,0.2967029
0.0011279,0.1247744,0.6503115,0.2237861
0.0031701,0.8778318,0.0496775,0.0693206
0.0067554,0.3556756,0.2976181,0.3399508
0.0687571,0.6842114,0.0420803,0.2049512
0.0197105,0.7610301,0.0650880,0.1541715
0.0966357,0.7049126,0.0215828,0.1768690
0.8335515,0.0794095,0.0005305,0.0865086
0.0041665,0.8934864,0.0416901,0.0606569
0.0457599,0.6503526,0.0515664,0.2523211
0.2009750,0.6195086,0.0090004,0.1705159
0.0601181,0.5861576,0.0628653,0.2908590
0.0715020,0.3107540,0.0858010,0.5319429
0.0532974,0.6904999,0.0444326,0.2117702
0.0018978,0.1096383,0.5692500,0.3192139
0.0794219,0.5607240,0.0536768,0.3061773
0.0257035,0.3998250,0.1522483,0.4222231
0.1422438,0.4989610,0.0511735,0.3076217
0.0296753,0.7289172,0.0535082,0.1878993
0.0023872,0.9070722,0.0418904,0.0486501
0.0047936,0.8184827,0.0622470,0.1144766
0.0171263,0.9015411,0.0122088,0.0691238
0.0372750,0.3033917,0.1331464,0.5261868
0.0279921,0.3320235,0.0965867,0.5433978
0.0230382,0.6082438,0.0977216,0.2709963
0.0437879,0.7181534,0.0463960,0.1916627
0.0367147,0.6996163,0.0503113,0.2133576
0.0129254,0.7675161,0.0743566,0.1452018
0.0211523,0.2949786,0.1613646,0.5225045
0.7995996,0.0985694,0.0010286,0.1008025
0.0190998,0.8246821,0.0345465,0.1216715
0.0425708,0.6306560,0.0549093,0.2718639
0.0284669,0.5193349,0.0723182,0.3798800
0.5114788,0.3377444,0.0025292,0.1482477
0.0144462,0.2865921,0.2067821,0.4921796
0.0022087,0.8897769,0.0491516,0.0588628
0.0251064,0.7491471,0.0502791,0.1754673
0.0273908,0.5088941,0.0738380,0.3898771
0.0165773,0.3353489,0.1609503,0.4871234
0.0230420,0.7466508,0.0660832,0.1642241
0.4291747,0.1525965,0.0094757,0.4087529
0.0000022,0.0025987,0.9769266,0.0204724
0.2133661,0.3146835,0.0225927,0.4493576
0.0117426,0.0856502,0.1229791,0.7796280
0.0286046,0.5206473,0.0721259,0.3786223
0.0134687,0.1341500,0.2023476,0.6500338
0.0074086,0.8433909,0.0497955,0.0994050
0.0005068,0.9367098,0.0390205,0.0237630
0.0085188,0.0359037,0.1164983,0.8390791
0.0531163,0.5269428,0.0653511,0.3545898
0.0034604,0.8990974,0.0415301,0.0559120
0.0194577,0.1670999,0.1762140,0.6372284
0.1050409,0.4541909,0.0616726,0.3790955
0.0157517,0.1134439,0.2257793,0.6450251
0.0051547,0.1122520,0.2847978,0.5977956
0.0218868,0.7464137,0.0475956,0.1841038
0.0742930,0.6079101,0.0508114,0.2669854
0.0149748,0.1295319,0.1910207,0.6644726
0.0229386,0.8203035,0.0368959,0.1198622
0.3057880,0.1027659,0.0170866,0.5743594
0.0026505,0.9063698,0.0412648,0.0497149
0.0254372,0.7125409,0.0590664,0.2029555
0.9434760,0.0082379,0.0002959,0.0479903
0.0586340,0.3303012,0.0802957,0.5307692
0.0310355,0.4775729,0.0814662,0.4099255
0.0000000,0.0008575,0.9946878,0.0044546
0.0170795,0.1431182,0.2128895,0.6269128
0.3953283,0.1349196,0.0107749,0.4589771
0.0032777,0.8695318,0.0520645,0.0751260
0.0186604,0.5791749,0.1257092,0.2764556
0.0487250,0.5168816,0.0667386,0.3676549
0.0373799,0.5946449,0.0607984,0.3071770
0.0189914,0.8400236,0.0302852,0.1106997
0.0111326,0.8145105,0.0510791,0.1232779
0.0759847,0.7159129,0.0265656,0.1815368
0.0273972,0.2330633,0.2080675,0.5314721
0.9050629,0.0285694,0.0002705,0.0660973
0.0803677,0.6169642,0.0373476,0.2653204
0.0028262,0.8991864,0.0433501,0.0546372
0.0726772,0.6168466,0.0525818,0.2578945
0.0537569,0.7482650,0.0324169,0.1655611
0.0483656,0.6393302,0.0674590,0.2448452
0.2076810,0.2933298,0.0556413,0.4433480
0.9149449,0.0152136,0.0005858,0.0692556
0.0122609,0.0360038,0.1340904,0.8176448
0.0239638,0.4701849,0.1320513,0.3738000
0.6296750,0.1429958,0.0084544,0.2188748
0.0028332,0.9046327,0.0413347,0.0511994
0.0131340,0.8334585,0.0455836,0.1078239
0.0002436,0.4271532,0.4462419,0.1263613
0.9630265,0.0082101,0.0000796,0.0286837
0.0747931,0.6776314,0.0304703,0.2171053
0.1191080,0.3116195,0.0459759,0.5232966
0.0851760,0.4681924,0.0557709,0.3908607
0.0497367,0.6725902,0.0476733,0.2299998
0.7211679,0.0902410,0.0035777,0.1850134
0.1114153,0.7026942,0.0157227,0.1701677
0.0425601,0.4755246,0.0735338,0.4083814
0.0050960,0.8868323,0.0418372,0.0662347
0.0091392,0.0740784,0.1409958,0.7757867
0.0294332,0.1343512,0.1592547,0.6769609
0.0598314,0.7189720,0.0390442,0.1821523
0.0187009,0.7944704,0.0474427,0.1393861
0.0079082,0.2056925,0.2604094,0.5259898
0.0864978,0.4420955,0.0692147,0.4021920
0.0102994,0.8174508,0.0510178,0.1212320
0.0091913,0.7190778,0.1016361,0.1700948
0.0178880,0.4718403,0.1123023,0.3979693
0.0019257,0.9140154,0.0409006,0.0431582
0.0115536,0.8483605,0.0429563,0.0971295
0.0598314,0.7189720,0.0390442,0.1821523
0.0273624,0.5086140,0.0738785,0.3901451
0.3370250,0.5092984,0.0037350,0.1499414
0.0075579,0.1511016,0.2697330,0.5716075
0.0143673,0.1821164,0.2321450,0.5713713
0.0066810,0.1618940,0.2670106,0.5644142
0.0000061,0.0161689,0.9383601,0.0454650
0.0128511,0.8465558,0.0420331,0.0985599
0.0434227,0.2406768,0.1406746,0.5752259
0.0297937,0.5188171,0.1389683,0.3124209
0.0010687,0.3614409,0.4685252,0.1689651
0.0587680,0.7129116,0.0413689,0.1869515
0.0202524,0.7767224,0.0445595,0.1584657
0.0322647,0.0999031,0.1238725,0.7439597
0.0212317,0.3544071,0.1210036,0.5033576
0.8132414,0.0588258,0.0013210,0.1266117
0.0410815,0.7610174,0.0401224,0.1577788
0.0133378,0.8452141,0.0416589,0.0997892
0.0232737,0.2623155,0.2183317,0.4960791
0.9507852,0.0144129,0.0002492,0.0345526
0.1724422,0.1693084,0.0614481,0.5968014
0.1268735,0.5885866,0.0277254,0.2568146
0.0165669,0.3187606,0.1995444,0.4651281
0.0087457,0.1841786,0.4059746,0.4011011
0.0129979,0.1206230,0.2588662,0.6075130
0.0067158,0.7502885,0.1232695,0.1197262
0.0113511,0.8029431,0.0577644,0.1279413
0.0276852,0.5481142,0.0791598,0.3450409
0.0199264,0.3769081,0.1933043,0.4098611
0.0474586,0.6601538,0.0498671,0.2425206
0.0070263,0.0240081,0.3168564,0.6521091
0.0041312,0.8937542,0.0416833,0.0604315
0.0027850,0.6519553,0.0843559,0.2609037
0.1840722,0.5488607,0.0224808,0.2445864
0.0520577,0.7120997,0.0424216,0.1934209
0.0694849,0.5729614,0.0423356,0.3152181
0.0113286,0.8531722,0.0420641,0.0934351
0.0262862,0.5572821,0.0886812,0.3277504
0.0135882,0.1904672,0.3263504,0.4695942
0.0001190,0.1603100,0.7610025,0.0785686
0.5799634,0.2483121,0.0030475,0.1686770
0.6431834,0.0329788,0.0035127,0.3203250
0.0210611,0.4182379,0.1239504,0.4367506
0.0024034,0.9085523,0.0412643,0.0477800
0.0774905,0.4072579,0.0598335,0.4554181
0.0360480,0.7729418,0.0407145,0.1502956
0.5014738,0.2897548,0.0051066,0.2036647
0.0000008,0.0113065,0.9577920,0.0309007
0.0592344,0.3730941,0.0772700,0.4904014
0.9012885,0.0340130,0.0002799,0.0644185
0.0000011,0.0146029,0.9676448,0.0177513
0.0098656,0.7653718,0.0800615,0.1447012
0.0363780,0.5870812,0.0620019,0.3145390
0.0198836,0.3673100,0.1368819,0.4759245
0.0739110,0.4435188,0.0571283,0.4254419
0.9047569,0.0401263,0.0004112,0.0547056
0.0085570,0.1709828,0.2353694,0.5850908
0.0448260,0.3144981,0.0846768,0.5559990
0.0228507,0.7278741,0.0496997,0.1995755
0.0155917,0.8318539,0.0427227,0.1098316
0.0000001,0.0061340,0.9716973,0.0221686
0.0170826,0.3586163,0.0923427,0.5319585
0.0265118,0.6885855,0.0745921,0.2103106
0.0437786,0.6383203,0.0536195,0.2642817
0.0084370,0.1469610,0.2088701,0.6357319
0.0204834,0.4773610,0.1158404,0.3863151
0.0000010,0.0076306,0.9712485,0.0211200
0.0525060,0.3957107,0.0771287,0.4746546
0.0000512,0.1560544,0.7519348,0.0919597
0.0000015,0.0191470,0.9604126,0.0204389
0.0981962,0.5547085,0.0436308,0.3034646
0.0194394,0.1338728,0.1326331,0.7140546
0.0388760,0.5511013,0.0742521,0.3357706
0.0656574,0.4724895,0.0873420,0.3745111
0.0190910,0.2213908,0.1213513,0.6381670
0.0036479,0.8975515,0.0415777,0.0572229
0.0209312,0.3928719,0.1181682,0.4680285
0.0122354,0.0843394,0.1227785,0.7806466
0.0791350,0.2425898,0.0857044,0.5925708
0.0338138,0.6226647,0.0603322,0.2831891
0.0073421,0.8290367,0.0617207,0.1019004
0.0369082,0.5875273,0.0623080,0.3132565
0.0106181,0.1084202,0.2054076,0.6755541
0.0085937,0.8345096,0.0500679,0.1068288
0.0153048,0.8902023,0.0179550,0.0765377
0.0101196,0.1493670,0.2839094,0.5566041
0.0456070,0.7497404,0.0400487,0.1646039
0.0080347,0.8321792,0.0515336,0.1082525
0.0097696,0.8604314,0.0420738,0.0877253
0.3257541,0.1166083,0.0126643,0.5449733
0.6003183,0.1524107,0.0068574,0.2404136
0.0077950,0.1861755,0.3879108,0.4181187
0.0170437,0.8301312,0.0418781,0.1109470
0.0279221,0.4616603,0.0842728,0.4261447
0.1128207,0.7111439,0.0131153,0.1629201
0.0053963,0.1305832,0.3253544,0.5386662
0.0111036,0.8874941,0.0252542,0.0761480
0.0000002,0.0015109,0.9814690,0.0170198
0.0293507,0.7119480,0.0528253,0.2058760
0.0405126,0.6694143,0.0583808,0.2316923
0.0865342,0.3800717,0.0718305,0.4615635
0.0938599,0.2568976,0.0882742,0.5609683
0.0302699,0.8272527,0.0254942,0.1169833
0.0311260,0.3262084,0.0882515,0.5544141
0.0265237,0.4577707,0.1271260,0.3885795
0.0000067,0.0082588,0.9604359,0.0312987
0.9358675,0.0166267,0.0002300,0.0472759
0.0180492,0.8427634,0.0332144,0.1059730
0.0339022,0.5674655,0.0650728,0.3335595
0.0072921,0.8733177,0.0420183,0.0773718
0.0003635,0.8417562,0.0763108,0.0815694
0.3678704,0.3984532,0.0085882,0.2250883
0.0014805,0.0544676,0.4926570,0.4513951
0.0105959,0.7896627,0.0570713,0.1426702
0.0240123,0.7471537,0.0628688,0.1659653
0.0068303,0.8629243,0.0456210,0.0846243
0.0198830,0.1569312,0.1152306,0.7079552
0.0191276,0.7797371,0.0497286,0.1514066
0.6253102,0.1378316,0.0044008,0.2324576
0.8986551,0.0344919,0.0004653,0.0663877
0.0751983,0.6583827,0.0458461,0.2205729
0.0399956,0.6014727,0.0706891,0.2878426
0.2136508,0.5825295,0.0111290,0.1926907
0.0082594,0.8680522,0.0420532,0.0816351
0.0184607,0.7635210,0.0562833,0.1617351
0.1207084,0.5635906,0.0268645,0.2888364
0.8801375,0.0407998,0.0007262,0.0783365
0.0027227,0.8073390,0.0593681,0.1305702
0.0070006,0.8614249,0.0457414,0.0858331
0.0004976,0.6893802,0.2172286,0.0928937
0.0347364,0.7763360,0.0408041,0.1481235
0.0000001,0.0033250,0.9831595,0.0135153
0.0000140,0.3247250,0.6131021,0.0621588
0.0348430,0.4529723,0.0840033,0.4281814
0.0130990,0.1541849,0.2254459,0.6072702
0.0013726,0.0540576,0.6597653,0.2848044
0.7977799,0.1031649,0.0007174,0.0983379
0.0328047,0.5583292,0.0664792,0.3423869
0.0099098,0.2286199,0.3625082,0.3989621
0.7542908,0.0815469,0.0016013,0.1625610
0.0204763,0.2145791,0.1764228,0.5885217
0.0453993,0.6257294,0.0832629,0.2456083
0.4104939,0.2779470,0.0132409,0.2983182
0.0284826,0.2098249,0.1801079,0.5815845
0.0124838,0.6579453,0.0924045,0.2371664
0.0009467,0.8496161,0.0600720,0.0893652
0.0022752,0.7266544,0.0725661,0.1985042
0.0106210,0.8308663,0.0498341,0.1086785
0.0322161,0.6710485,0.0682210,0.2285144
0.0178659,0.1711069,0.1260416,0.6849855
0.1058183,0.4668696,0.0603527,0.3669593
0.1336465,0.6824319,0.0138742,0.1700475
0.0118089,0.7766911,0.0491954,0.1623045
0.1723946,0.4906759,0.0451586,0.2917709
0.0248382,0.4778529,0.0790345,0.4182744
0.0180711,0.8264214,0.0418295,0.1136779
0.8302976,0.0618251,0.0019029,0.1059745
0.0552983,0.4195181,0.0809661,0.4442177
0.0422080,0.6204141,0.0573291,0.2800488
0.0127342,0.1723510,0.2146891,0.6002256
0.0197122,0.8061092,0.0445127,0.1296659
0.3282949,0.3409992,0.0212387,0.3094673
0.0148625,0.1539262,0.2048180,0.6263933
0.0131221,0.0734705,0.1207743,0.7926331
0.0547519,0.4482709,0.0648581,0.4321190
0.0552629,0.7048151,0.0436288,0.1962931
0.0148341,0.1862140,0.1923223,0.6066296
0.0167933,0.6356568,0.1027973,0.2447525
0.0651465,0.4663668,0.0685140,0.3999727
0.0130820,0.2031569,0.2188118,0.5649493
0.0001842,0.0705806,0.8070244,0.1222109
0.2177785,0.2837900,0.0463397,0.4520917
0.0279232,0.7061202,0.0507068,0.2152497
0.0811550,0.4421543,0.0521507,0.4245400
0.0171783,0.1777286,0.1621709,0.6429221
0.0073623,0.6457080,0.1768148,0.1701149
0.0135896,0.2487365,0.2303665,0.5073075
0.0304896,0.5111244,0.0929979,0.3653881
0.0362753,0.5862939,0.0621265,0.3153042
0.0000046,0.0287598,0.9428661,0.0283695
0.1454684,0.3492187,0.0332563,0.4720564
0.0251769,0.7954808,0.0427577,0.1365846
0.0174957,0.7793970,0.0538356,0.1492718
0.0125858,0.2817791,0.2270201,0.4786149
0.0195174,0.7901694,0.0540058,0.1363074
0.0096337,0.2131076,0.2158654,0.5613933
0.0290692,0.5250393,0.0714802,0.3744114
0.0071885,0.8783849,0.0394009,0.0750257
0.0059321,0.9238725,0.0185698,0.0516257
0.0135291,0.5576463,0.1369141,0.2919105
0.0247852,0.1516253,0.1912559,0.6323336
0.0623785,0.5948243,0.0508125,0.2919846
0.0181015,0.1852845,0.1309271,0.6656868
0.9004344,0.0267547,0.0005222,0.0722887
0.1348385,0.2439348,0.0755180,0.5457087
0.0089898,0.8316094,0.0516128,0.1077880
0.0821423,0.5955930,0.0529873,0.2692773
0.0028556,0.9044239,0.0413428,0.0513776
0.0301903,0.5677353,0.0780537,0.3240207
0.0083207,0.1888985,0.2531618,0.5496191
0.0524318,0.6942839,0.0469459,0.2063384
0.0168909,0.2947429,0.1512441,0.5371221
0.0012900,0.8679345,0.0568575,0.0739179
0.0210207,0.7597923,0.0649329,0.1542541
0.0318801,0.5117332,0.0767843,0.3796025
0.0171214,0.8298467,0.0418746,0.1111572
0.0399210,0.6522756,0.0546604,0.2531429
0.0066585,0.7698020,0.0869643,0.1365751
0.0149488,0.3298822,0.1688535,0.4863154
0.0149191,0.1055041,0.1317560,0.7478209
0.0037203,0.8836294,0.0460672,0.0665832
0.0308463,0.5413139,0.0690591,0.3587805
0.0171819,0.6880351,0.0583941,0.2363889
0.0217983,0.0953619,0.1395864,0.7432534
0.9305921,0.0103474,0.0005309,0.0585295
0.0078101,0.1295813,0.2894522,0.5731565
0.0518412,0.6833929,0.0457308,0.2190350
0.0445397,0.6324310,0.0555192,0.2675101
0.8678446,0.0638832,0.0005310,0.0677411
0.0355721,0.5730220,0.0719864,0.3194194
0.0150586,0.1896900,0.1968258,0.5984256
0.0389533,0.4766808,0.0775825,0.4067834
0.0000000,0.0010765,0.9936303,0.0052931
0.1185049,0.6744700,0.0190024,0.1880227
0.0074880,0.1004464,0.2331976,0.6588681
0.0152327,0.8369479,0.0419550,0.1058645
0.0200454,0.3247548,0.2427936,0.4124061
0.0000340,0.0814721,0.8572307,0.0612631
0.0001873,0.1097246,0.7854452,0.1046429
0.0801852,0.1119324,0.0813341,0.7265483
0.0035868,0.8448117,0.0587547,0.0928466
0.0155289,0.6760499,0.1201049,0.1883163
0.0381572,0.7002673,0.0477864,0.2137891
0.0125985,0.8197139,0.0504647,0.1172229
0.0148871,0.0801313,0.2086367,0.6963449
0.0314199,0.7216271,0.0534060,0.1935469
0.8886549,0.0397218,0.0003495,0.0712738
0.1704453,0.0599422,0.0203985,0.7492140
0.0100418,0.7514921,0.0552569,0.1832092
0.0199167,0.5080140,0.1167262,0.3553432
0.0888412,0.7089144,0.0240612,0.1781831
0.0552070,0.7179664,0.0406453,0.1861814
0.5861884,0.0984815,0.0048597,0.3104706
0.0301611,0.4461169,0.0850717,0.4386503
0.0193488,0.3794498,0.1397834,0.4614180
0.0054117,0.8847218,0.0418752,0.0679914
0.0258383,0.2413887,0.1450644,0.5877086
0.0483878,0.6653225,0.0489606,0.2373290
0.0071271,0.1634421,0.2680800,0.5613508
0.0598314,0.7189720,0.0390442,0.1821523
0.1065172,0.4708164,0.0544200,0.3682465
0.0007803,0.7668108,0.1153917,0.1170172
0.0130520,0.8505989,0.0393646,0.0969845
0.0166874,0.3001970,0.2283627,0.4547528
0.0120175,0.0990335,0.1362386,0.7527103
0.0067835,0.7814037,0.0659688,0.1458440
0.0052041,0.8861019,0.0418508,0.0668432
0.0039453,0.8951846,0.0416454,0.0592247
0.0192384,0.7503051,0.0477227,0.1827338
0.0127560,0.8356647,0.0445742,0.1070051
0.0025367,0.9074858,0.0412175,0.0487601
0.0128481,0.2614178,0.2413694,0.4843646
0.0264791,0.4379486,0.1404189,0.3951535
0.0349775,0.5183699,0.1174767,0.3291760
0.0171049,0.8209866,0.0400336,0.1218748
0.0112846,0.2294895,0.2679829,0.4912428
0.0090692,0.7526413,0.0558191,0.1824703
0.0158597,0.7897233,0.0508325,0.1435845
0.0500038,0.4777189,0.0704316,0.4018457
0.0501935,0.6749898,0.0472449,0.2275717
0.0320394,0.6361292,0.0570445,0.2747871
0.0013884,0.8750284,0.0596568,0.0639264
0.2258760,0.1111339,0.0574395,0.6055508
0.0204546,0.7280786,0.0569986,0.1944682
0.1040012,0.6062186,0.0426887,0.2470914
0.0113413,0.7930852,0.0558696,0.1397039
0.0062201,0.8486601,0.0525304,0.0925895
0.0476344,0.6216363,0.0892979,0.2414314
0.1142756,0.4377174,0.0402620,0.4077450
0.8339902,0.0590080,0.0017146,0.1052871
0.0473622,0.2959927,0.0962360,0.5604090
0.0186373,0.3331350,0.1487713,0.4994563
0.0346965,0.4270496,0.1183843,0.4198695
0.1189652,0.4175080,0.0266086,0.4369182
0.0142232,0.8505636,0.0370982,0.0981150
0.0582659,0.0526503,0.0986427,0.7904410
0.0025453,0.9073995,0.0412212,0.0488337
0.0335854,0.5591874,0.0661406,0.3410866
0.0123149,0.7879746,0.0600624,0.1396480
0.7859881,0.0380051,0.0030049,0.1730020
0.0051903,0.8728835,0.0458887,0.0760376
0.0741107,0.6405220,0.0499991,0.2353682
0.0174015,0.8597730,0.0275076,0.0953178
0.0120483,0.8499922,0.0420517,0.0959077
0.0136958,0.8807839,0.0239359,0.0815845
0.0000000,0.0039030,0.9818279,0.0142691
0.2888376,0.1160547,0.0173211,0.5777866
0.0000765,0.0193630,0.8735781,0.1069824
0.1928956,0.5764289,0.0158878,0.2147876
0.0500720,0.6286954,0.0533502,0.2678825
0.3324608,0.4206221,0.0111388,0.2357784
0.0431564,0.6344036,0.0542803,0.2681597
0.0950084,0.4092705,0.0680726,0.4276486
0.8717841,0.0378640,0.0008454,0.0895065
0.0000000,0.0029627,0.9877971,0.0092402
0.9390867,0.0198186,0.0001790,0.0409157
0.0135856,0.5414484,0.1312065,0.3137594
0.0142775,0.0597274,0.2592703,0.6667249
0.0128732,0.2152947,0.1574408,0.6143913
0.0305530,0.6403276,0.0856129,0.2435064
0.0001802,0.2860083,0.5574270,0.1563846
0.0484333,0.6038600,0.0568377,0.2908689
0.0030016,0.8682003,0.0535033,0.0752947
0.0154385,0.8654893,0.0279398,0.0911322
0.0011339,0.0739430,0.6408532,0.2840699
0.0122899,0.2712979,0.2258994,0.4905129
0.0154206,0.3405365,0.0986323,0.5454105
0.0035549,0.5686721,0.2218598,0.2059134
0.0075622,0.8645096,0.0446078,0.0833204
0.0986129,0.0496773,0.0317233,0.8199865
0.0137107,0.6333452,0.0779389,0.2750052
0.0837366,0.7050146,0.0344987,0.1767500
0.0041195,0.8938428,0.0416810,0.0603566
0.0327139,0.4292501,0.0798771,0.4581589
0.0227578,0.2323378,0.1044447,0.6404597
0.4097110,0.0319926,0.0315475,0.5267488
0.0658409,0.5907238,0.0594780,0.2839574
0.0359903,0.5633320,0.0681253,0.3325524
0.0157498,0.2132601,0.1506778,0.6203124
0.0017150,0.9165326,0.0407580,0.0409943
0.1539411,0.6168202,0.0148414,0.2143973
0.1469291,0.6735025,0.0120971,0.1674714
0.0048187,0.7949964,0.0682643,0.1319206
0.0579334,0.3769334,0.0771285,0.4880047
0.0943371,0.6459424,0.0306458,0.2290746
0.0294889,0.6608474,0.0659914,0.2436724
0.9088982,0.0250161,0.0003018,0.0657840
0.0111392,0.1129877,0.1688904,0.7069826
0.0161480,0.2452574,0.1178755,0.6207191
0.0139093,0.1636027,0.2544566,0.5680314
0.9083444,0.0233446,0.0004528,0.0678581
0.0016445,0.8073661,0.0826164,0.1083731
0.0050983,0.1892686,0.4410636,0.3645694
0.0005898,0.7328595,0.1614945,0.1050562
0.0283955,0.8158438,0.0307742,0.1249865
0.0172219,0.1635806,0.1159406,0.7032568
0.0123748,0.8485811,0.0420447,0.0969992
0.0355185,0.5804237,0.0630522,0.3210056
0.0437137,0.6379154,0.0536880,0.2646830
0.0105978,0.8294536,0.0506914,0.1092570
0.0029060,0.5703681,0.1077823,0.3189436
0.0278517,0.4400564,0.0861019,0.4459901
0.0356308,0.4463078,0.0773848,0.4406766
0.0411191,0.6197889,0.0578141,0.2812779
0.0048658,0.7852044,0.1076378,0.1022919
0.0026587,0.9062909,0.0412681,0.0497825
0.0006049,0.8299176,0.0833830,0.0860946
0.1141707,0.6188662,0.0278946,0.2390686
0.0429492,0.7559479,0.0402354,0.1608675
0.0000136,0.0189533,0.9334029,0.0476302
0.0099067,0.8597706,0.0420740,0.0882487
0.6806615,0.1641495,0.0021625,0.1530266
0.0047382,0.8893098,0.0417874,0.0641645
0.0254322,0.6748780,0.0602207,0.2394691
0.0598314,0.7189720,0.0390442,0.1821523
0.0406818,0.5590582,0.0641335,0.3361266
0.0065944,0.8571159,0.0476210,0.0886685
0.0190640,0.5036265,0.1248812,0.3524283
0.0420399,0.3419154,0.1060087,0.5100361
0.0289763,0.8006251,0.0374426,0.1329558
0.0338356,0.5442915,0.0941691,0.3277038
0.0241731,0.8338090,0.0294973,0.1125206
0.0000021,0.0197691,0.9329717,0.0472571
0.0480571,0.6634985,0.0492813,0.2391631
0.0044697,0.8183402,0.0532437,0.1239464
0.0568255,0.3197828,0.0813423,0.5420494
0.0297797,0.5151430,0.0752285,0.3798489
0.7941415,0.0732678,0.0019136,0.1306770
0.0242936,0.2347592,0.1148224,0.6261248
0.0149422,0.1995002,0.2264443,0.5591131
0.0269052,0.5040756,0.0745333,0.3944859
0.0221661,0.4129328,0.1591477,0.4057533
0.0044436,0.8795617,0.0465740,0.0694207
0.0013359,0.8288609,0.0680790,0.1017242
0.9075848,0.0293804,0.0003395,0.0626954
0.0176377,0.3439016,0.2579502,0.3805103
0.0193577,0.3851998,0.0980329,0.4974095
0.0135744,0.8435509,0.0420127,0.1008620
0.0292002,0.5262669,0.0712991,0.3732338
0.0215647,0.4055794,0.1034846,0.4693712
0.0047462,0.8892530,0.0417886,0.0642121
0.0019190,0.9140921,0.0408965,0.0430924
0.0106754,0.8366190,0.0467029,0.1060026
0.0144660,0.1204471,0.1494205,0.7156664
0.0128808,0.8298169,0.0457287,0.1115735
0.7278982,0.1395691,0.0014510,0.1310816
0.0107963,0.8367878,0.0519290,0.1004869
0.6317936,0.0581903,0.0031402,0.3068759
0.0089951,0.1367027,0.1770091,0.6772931
0.1243426,0.6532338,0.0205049,0.2019188
0.0118643,0.6916623,0.1126472,0.1838261
0.0392346,0.6081073,0.0586284,0.2940299
0.4311031,0.4093142,0.0106864,0.1488962
0.0593692,0.7171310,0.0394028,0.1840971
0.0005293,0.9361501,0.0390879,0.0242326
0.9635885,0.0098198,0.0000420,0.0265496
0.0082739,0.0902802,0.2053268,0.6961190
0.0345130,0.7769199,0.0408194,0.1477477
0.0427606,0.3423734,0.1179916,0.4968743
0.0554307,0.6840456,0.0513040,0.2092197
0.0874127,0.4949505,0.0617256,0.3559111
0.0150362,0.8292381,0.0446571,0.1110686
0.0094196,0.4791057,0.2814472,0.2300276
0.0000000,0.0026662,0.9872829,0.0100508
0.0117001,0.0885496,0.1275827,0.7721676
0.0572983,0.5022244,0.0615999,0.3788774
0.0130601,0.1792052,0.2271039,0.5806309
0.0231175,0.6355995,0.0746441,0.2666389
0.0199762,0.8198045,0.0417319,0.1184874
0.0060552,0.8806136,0.0419383,0.0713929
0.0208642,0.6655897,0.0652283,0.2483178
0.0067139,0.0398197,0.1363161,0.8171502
0.0229502,0.5241909,0.1216754,0.3311834
0.0015120,0.9191302,0.0405972,0.0387605
0.0285644,0.7284690,0.0516114,0.1913551
0.0063668,0.8520238,0.0518266,0.0897826
0.6055425,0.1139096,0.0039682,0.2765797
0.0289488,0.4927527,0.0808579,0.3974406
0.0448137,0.7442092,0.0414662,0.1695109
0.4308412,0.2484573,0.0118513,0.3088502
0.0197777,0.1534894,0.1239843,0.7027486
0.0262184,0.4653049,0.1271729,0.3813039
0.0140913,0.3123012,0.1474519,0.5261555
0.0553764,0.6856050,0.0462204,0.2127982
0.9552521,0.0041776,0.0000606,0.0405098
0.0406435,0.0976482,0.0852628,0.7764456
0.0133184,0.8736110,0.0277371,0.0853335
0.0176004,0.3250059,0.1079108,0.5494829
0.0095462,0.8228696,0.0513811,0.1162030
0.0138765,0.3422017,0.2158222,0.4280995
0.1753947,0.5879170,0.0176399,0.2190483
0.0189589,0.5442900,0.1521021,0.2846491
0.0069858,0.8492488,0.0490188,0.0947465
0.1089189,0.6733871,0.0223198,0.1953741
0.0046639,0.7276379,0.0935398,0.1741584
0.0286686,0.4963084,0.0892117,0.3858113
0.0006082,0.8859653,0.0566860,0.0567403
0.3327786,0.3854112,0.0107229,0.2710872
0.0000744,0.7609232,0.1694008,0.0696015
0.0045331,0.8399510,0.0571118,0.0984041
0.0154078,0.7932274,0.0579857,0.1333790
0.0070993,0.8237072,0.0553088,0.1138847
0.0493800,0.5818945,0.0700930,0.2986325
0.0055589,0.8793121,0.0432277,0.0719012
0.0304399,0.4409280,0.0866969,0.4419352
0.0626377,0.7211965,0.0273158,0.1888500
0.0130886,0.1245666,0.2273274,0.6350173
0.0142502,0.6557943,0.1053074,0.2246480
0.0330999,0.7798988,0.0411619,0.1458395
0.0404633,0.6166539,0.0572316,0.2856513
0.9947101,0.0005906,0.0000056,0.0046937
0.0090890,0.8154585,0.0589803,0.1164722
0.0566997,0.7148493,0.0411086,0.1873424
0.1170888,0.2965385,0.0464850,0.5398877
0.0544093,0.1148131,0.0810830,0.7496946
0.0060725,0.1464878,0.3020774,0.5453622
0.0598314,0.7189720,0.0390442,0.1821523
0.0064382,0.1571051,0.2441831,0.5922737
0.0174292,0.7599456,0.0565614,0.1660638
0.0398383,0.5035697,0.0704769,0.3861153
0.1693520,0.6033536,0.0171703,0.2101240
0.0310198,0.4830964,0.0931209,0.3927629
0.0945297,0.0245570,0.0303542,0.8505591
0.0006248,0.1221775,0.6710089,0.2061888
0.9112446,0.0275049,0.0004303,0.0608202
0.0002836,0.7513227,0.0963673,0.1520263
0.9795547,0.0022668,0.0000623,0.0181161
0.0240483,0.6839443,0.0601552,0.2318523
0.0269953,0.8274008,0.0286551,0.1169487
0.0193904,0.4220556,0.1686658,0.3898880
0.0495545,0.6716244,0.0478452,0.2309758
0.0248223,0.5855637,0.1041427,0.2854713
0.7747337,0.0742993,0.0020197,0.1489473
0.0368766,0.5908713,0.0614002,0.3108521
0.0846465,0.4208541,0.0719212,0.4225781
0.0519992,0.3435808,0.1223527,0.4820674
0.1013135,0.4993276,0.0579429,0.3414161
0.0188610,0.2337379,0.1811668,0.5662343
0.0417382,0.6252208,0.0558158,0.2772253
0.0440273,0.7637540,0.0358639,0.1563548
0.6276142,0.2039579,0.0024137,0.1660141
0.0252930,0.4875808,0.0768845,0.4102417
0.0498845,0.6733699,0.0475343,0.2292113
0.0037772,0.8232025,0.0908264,0.0821937
0.0000047,0.0067476,0.9446394,0.0486083
0.1300337,0.1314456,0.0397773,0.6987433
0.0040493,0.6112564,0.2262406,0.1584537
0.0188871,0.7203450,0.0640048,0.1967629
0.0253959,0.7333590,0.0648174,0.1764277
0.0088440,0.1843976,0.2132763,0.5934821
0.0059478,0.0246322,0.2984959,0.6709241
0.2337563,0.2759505,0.0247047,0.4655887
0.0114408,0.7743745,0.0589187,0.1552660
0.0446639,0.1931793,0.0885054,0.6736513
0.0813300,0.3169978,0.0646364,0.5370358
0.6714407,0.1312817,0.0048998,0.1923779
0.0024713,0.8971320,0.0453390,0.0550578
0.0050776,0.8869572,0.0418348,0.0661303
0.0182701,0.3299910,0.1858748,0.4658641
0.0035151,0.8986419,0.0415444,0.0562986
0.0095022,0.0516362,0.1231861,0.8156754
0.0362548,0.6447427,0.0567044,0.2622980
0.0032365,0.7565584,0.0637945,0.1764106
0.0319420,0.5490702,0.0678210,0.3511668
0.6764831,0.1421905,0.0042434,0.1770831
0.0270288,0.5053080,0.0743558,0.3933075
0.0017623,0.9159528,0.0407919,0.0414927
0.0176804,0.6111900,0.1110817,0.2600479
0.0286600,0.7929029,0.0412092,0.1372277
0.0157920,0.4879628,0.1595113,0.3367339
0.0006441,0.8408727,0.0778576,0.0806256
0.0234182,0.3973620,0.1281450,0.4510747
0.0049306,0.8426260,0.0552550,0.0971885
0.1000325,0.7061683,0.0190312,0.1747680
0.0047293,0.1227901,0.4603674,0.4121132
0.2250553,0.5017050,0.0196508,0.2535888
0.0119689,0.2609171,0.1829679,0.5441461
0.1477413,0.6623244,0.0269481,0.1629862
0.0119569,0.0742528,0.1224841,0.7913061
0.0351344,0.5742341,0.0643725,0.3262589
0.0050084,0.8357201,0.0743578,0.0849138
0.0000016,0.0346581,0.9266512,0.0386891
0.0013638,0.6175455,0.2314037,0.1496870
0.0086824,0.8582091,0.0446540,0.0884546
0.9708909,0.0011227,0.0000575,0.0279290
0.0388735,0.6055399,0.0590450,0.2965415
0.0363260,0.5866829,0.0620649,0.3149261
0.0462598,0.6890008,0.0499864,0.2147529
0.8919322,0.0368498,0.0005080,0.0707100
0.0350108,0.7756212,0.0407854,0.1485827
0.0097204,0.2137294,0.2423839,0.5341663
0.0075807,0.8510791,0.0494614,0.0918787
0.7832335,0.0563132,0.0014120,0.1590413
0.0162449,0.3033848,0.1457787,0.5345916
0.0482174,0.5582116,0.0623018,0.3312692
0.0588784,0.7106524,0.0408707,0.1895984
0.0139880,0.8432099,0.0371260,0.1056761
0.0259697,0.7090283,0.0554316,0.2095703
0.6874949,0.1014960,0.0031553,0.2078537
0.0000521,0.2506043,0.6678768,0.0814668
0.0300346,0.6887736,0.0697628,0.2114289
0.0896791,0.4716865,0.0430791,0.3955553
0.0120667,0.5468146,0.1731786,0.2679400
0.0280141,0.5819489,0.1063518,0.2836852
0.0199679,0.1968989,0.2160842,0.5670489
0.0000179,0.0244808,0.8902392,0.0852622
0.0089561,0.2091503,0.1999487,0.5819450
0.0312060,0.5196958,0.0756667,0.3734315
0.0531272,0.6613146,0.0484207,0.2371375
0.0054046,0.8244444,0.0589496,0.1112014
0.0080259,0.7515277,0.0574914,0.1829550
0.1104642,0.1105741,0.0439537,0.7350079
0.1249421,0.4352746,0.0609543,0.3788291
0.1451476,0.7176214,0.0055214,0.1317095
0.0238825,0.7350221,0.0532493,0.1878459
0.0290560,0.0643527,0.0852212,0.8213701
0.0275109,0.7124236,0.0681836,0.1918819
0.0111037,0.0686214,0.1224978,0.7977771
0.0177231,0.3239543,0.2292649,0.4290577
0.0013777,0.9209597,0.0404751,0.0371876
0.0594592,0.6002577,0.0603606,0.2799225
0.5678059,0.0774929,0.0187850,0.3359162
0.0000050,0.0234568,0.9456918,0.0308464
0.0128979,0.8030899,0.0513377,0.1326744
0.0097070,0.8717211,0.0360841,0.0824878
0.0041354,0.8078588,0.0576348,0.1303709
0.0001530,0.5758823,0.3224565,0.1015081
0.0229588,0.3229467,0.1950804,0.4590142
0.0188931,0.7581852,0.0652475,0.1576742
0.0077541,0.2053937,0.2128766,0.5739756
0.0129744,0.7154387,0.0679665,0.2036204
0.0390714,0.1713105,0.0938042,0.6958141
0.0118452,0.7950166,0.0552370,0.1379012
0.3845695,0.4346533,0.0049160,0.1758612
0.0169753,0.6829756,0.0700978,0.2299512
0.0024938,0.0735541,0.4147446,0.5092075
0.0199548,0.7242277,0.0606687,0.1951487
0.0435434,0.7545454,0.0401937,0.1617176
0.0190142,0.1890996,0.2322972,0.5595890
0.0016695,0.9171002,0.0407241,0.0405063
0.0001607,0.4244980,0.4480166,0.1273248
0.8932847,0.0408675,0.0004345,0.0654134
0.5364698,0.1564319,0.0055177,0.3015806
0.0063284,0.8789393,0.0419602,0.0727720
0.0079576,0.7933553,0.0738108,0.1248763
0.0062109,0.1461923,0.3114356,0.5361612
0.0299509,0.5051743,0.1106369,0.3542378
0.0260080,0.7765886,0.0453993,0.1520041
0.0189849,0.1977326,0.2817425,0.5015401
0.2583196,0.0376340,0.0604391,0.6436073
0.2192081,0.4423066,0.0297358,0.3087496
0.0016756,0.8619266,0.0570864,0.0793113
0.0001644,0.5249203,0.3541141,0.1208011
0.0166389,0.2436344,0.1842743,0.5554523
0.0387123,0.1336845,0.0945077,0.7330956
0.0022117,0.9076246,0.0423226,0.0478411
0.0592000,0.6467648,0.0469548,0.2470803
0.0181931,0.1338959,0.1879360,0.6599750
0.0000049,0.0107706,0.9331708,0.0560539
0.0035242,0.0887479,0.3765907,0.5311372
0.0210727,0.3931104,0.1623103,0.4235066
0.0334729,0.1435292,0.0908043,0.7321935
0.0049044,0.1340700,0.3686572,0.4923684
0.0036608,0.8974462,0.0415809,0.0573121
0.0279283,0.7696292,0.0437095,0.1587330
0.0526536,0.6873937,0.0450021,0.2149506
0.0112825,0.8596725,0.0386977,0.0903473
0.0231040,0.0830212,0.0891517,0.8047230
0.0403374,0.3779050,0.1370801,0.4446773
0.0089826,0.2024048,0.2748454,0.5137672
0.0467585,0.6561704,0.0505607,0.2465103
0.0173165,0.3335536,0.2129122,0.4362178
0.0067008,0.8849298,0.0371774,0.0711921
0.0339620,0.2210791,0.1242642,0.6206948
0.0000173,0.0757435,0.7983965,0.1258428
0.0146312,0.0399329,0.2340888,0.7113471
0.1775729,0.5538618,0.0268093,0.2417560
0.0111885,0.7709938,0.0508840,0.1669338
0.0151155,0.2063482,0.1981506,0.5803856
0.0007134,0.6099644,0.2744513,0.1148709
0.0043679,0.1162306,0.3790213,0.5003800
0.0220374,0.2462581,0.1945234,0.5371810
0.0605326,0.5812337,0.0568179,0.3014159
0.0066000,0.1596320,0.2265985,0.6071695
0.0362966,0.3284823,0.1439108,0.4913103
0.0445439,0.7109049,0.0454098,0.1991414
0.0185636,0.7009218,0.0627472,0.2177675
0.0004844,0.4277685,0.4491965,0.1225505
0.0000184,0.0133056,0.9337655,0.0529105
0.0572107,0.6957789,0.0441549,0.2028555
0.0101982,0.8106802,0.0683991,0.1107225
0.0153297,0.6487976,0.0749913,0.2608814
0.0153687,0.8556782,0.0322960,0.0966572
0.0505068,0.6766177,0.0469533,0.2259222
0.0189430,0.8372688,0.0351966,0.1085918
0.0109887,0.8433512,0.0456556,0.1000044
0.0403026,0.7744496,0.0355979,0.1496498
0.0658703,0.7591137,0.0328817,0.1421342
0.3988152,0.3749678,0.0067107,0.2195064
0.0168211,0.1266435,0.3184204,0.5381150
0.0375593,0.6221080,0.0614201,0.2789126
0.0119882,0.1180994,0.1420199,0.7278925
0.0638104,0.7061005,0.0400515,0.1900376
0.0020698,0.9123813,0.0409868,0.0445621
0.0212708,0.8154812,0.0416609,0.1215871
0.0022143,0.6604928,0.0818815,0.2554114
0.0000010,0.0139237,0.9540856,0.0319897
0.0576189,0.4353838,0.0830104,0.4239869
0.0075137,0.8720809,0.0420282,0.0783772
0.0128021,0.0624462,0.2658086,0.6589432
0.2681202,0.5339014,0.0084371,0.1895413
0.0013219,0.9217498,0.0404198,0.0365083
0.0326323,0.3642464,0.1280855,0.4750358
0.4458185,0.3319428,0.0064511,0.2157875
0.0198744,0.7545924,0.0692552,0.1562781
0.0687312,0.6804839,0.0414920,0.2092929
0.8157799,0.0812230,0.0007855,0.1022116
0.0143255,0.3241238,0.1050157,0.5565350
0.0114567,0.0701393,0.1205520,0.7978519
0.0080746,0.8423365,0.0512730,0.0983159
0.0472308,0.6910446,0.0480469,0.2136777
0.0289290,0.5252821,0.0793788,0.3664100
0.0052027,0.8139197,0.0526629,0.1282146
0.0000645,0.1063994,0.7436859,0.1498501
0.0399242,0.5736343,0.0632135,0.3232280
0.0171478,0.8039034,0.0489312,0.1300175
0.0241767,0.6084617,0.0778841,0.2894774
0.0627941,0.5505108,0.0623206,0.3243744
0.0228303,0.4448655,0.0889205,0.4433838
0.0003263,0.9418592,0.0383248,0.0194897
0.0418076,0.6256791,0.0557396,0.2767736
0.0052709,0.8856544,0.0418589,0.0672157
0.0916988,0.3525865,0.0749187,0.4807960
0.0000965,0.0260818,0.8546279,0.1191937
0.0065876,0.8773857,0.0419786,0.0740480
0.0863228,0.7232836,0.0211505,0.1692431
0.0410315,0.6205091,0.0565964,0.2818631
0.0091866,0.8332661,0.0494774,0.1080698
0.0043370,0.8922103,0.0417217,0.0617310
0.1977061,0.5656263,0.0311361,0.2055314
0.0039696,0.5820758,0.1687862,0.2451684
0.0023046,0.9098495,0.0411111,0.0467347
0.0828528,0.5165025,0.0494352,0.3512095
0.0444662,0.5711009,0.0617439,0.3226891
0.0191487,0.0344883,0.1524958,0.7938672
0.0006963,0.8679224,0.0691250,0.0622563
0.7903544,0.0498817,0.0015516,0.1582123
0.4325917,0.4028466,0.0035784,0.1609831
0.9559239,0.0101340,0.0001062,0.0338360
0.6490415,0.2038699,0.0019720,0.1451166
0.0184901,0.8021907,0.0478677,0.1314514
0.0210853,0.8160926,0.0416712,0.1211508
0.0512517,0.7348148,0.0381087,0.1758248
0.0302971,0.6233979,0.0624631,0.2838419
0.0075649,0.1726462,0.3195011,0.5002878
0.0445023,0.6347681,0.0607629,0.2599668
0.0096879,0.2060449,0.3061045,0.4781628
0.0036018,0.8569255,0.0599756,0.0794971
0.0051453,0.8315709,0.0706128,0.0926709
0.1302532,0.4346791,0.0368153,0.3982523
0.0347957,0.5747007,0.0639484,0.3265552
0.0137841,0.3136308,0.3572077,0.3153774
0.0638510,0.6043526,0.0579040,0.2738924
0.0091002,0.4390352,0.1877169,0.3641477
0.0196282,0.3144177,0.1523743,0.5135798
0.0598314,0.7189720,0.0390442,0.1821523
0.0313410,0.2767244,0.1404340,0.5515005
0.1032748,0.3153373,0.0742308,0.5071572
0.0972916,0.4189474,0.0661351,0.4176259
0.0000039,0.0072531,0.9670067,0.0257361
0.0020103,0.8743116,0.0512812,0.0723970
0.0645861,0.4323927,0.0712930,0.4317281
0.0090218,0.8203091,0.0527603,0.1179088
0.2772646,0.3764968,0.0405383,0.3057004
0.0691378,0.6385658,0.0500925,0.2422040
0.0182266,0.7125266,0.0613981,0.2078488
0.0976705,0.2182468,0.0628221,0.6212607
0.0029129,0.9038947,0.0413631,0.0518293
0.0043146,0.8505272,0.0684375,0.0767205
0.0341785,0.3004673,0.1823440,0.4830101
0.0003547,0.8422325,0.0929414,0.0644715
0.0087372,0.8655692,0.0420636,0.0836300
0.0304610,0.5378545,0.0695775,0.3621069
0.0115037,0.7960710,0.0598873,0.1325379
0.0236572,0.7830591,0.0475735,0.1457102
0.0307610,0.5065572,0.0823802,0.3803017
0.0001459,0.1059034,0.7116492,0.1823015
0.0123373,0.8133832,0.0498511,0.1244284
0.0507345,0.7065116,0.0455965,0.1971573
0.4391887,0.1388496,0.0158794,0.4060823
0.0001742,0.5149780,0.3644828,0.1203651
0.0000495,0.0387292,0.8503120,0.1109093
0.1906729,0.5794462,0.0159412,0.2139396
0.0094143,0.7566227,0.0962255,0.1377375
0.0233449,0.1022571,0.1228143,0.7515836
0.0011180,0.9248131,0.0401909,0.0338780
0.0572787,0.4873159,0.0682807,0.3871246
0.0111718,0.2535970,0.1898377,0.5453935
0.0346637,0.5736433,0.0641133,0.3275797
0.2038996,0.1653547,0.0292893,0.6014565
0.9387932,0.0187860,0.0001128,0.0423081
0.0513975,0.4571816,0.0819842,0.4094367
0.0122814,0.8375289,0.0455416,0.1046481
0.7513881,0.1401620,0.0009011,0.1075487
0.0246264,0.6878867,0.0745339,0.2129530
0.5220526,0.2907459,0.0040340,0.1831674
0.0263048,0.7528417,0.0489352,0.1719184
0.0086987,0.8060902,0.0590008,0.1262104
0.0051709,0.8863256,0.0418467,0.0666570
0.0100376,0.2007440,0.3313494,0.4578691
0.0573187,0.5877550,0.0567473,0.2981788
0.0166889,0.6427808,0.1043882,0.2361421
0.0305649,0.7675496,0.0421640,0.1597214
0.0087826,0.8524132,0.0464294,0.0923747
0.0283399,0.3895054,0.0847936,0.4973611
0.0594266,0.3327359,0.1015843,0.5062531
0.0178871,0.8108801,0.0462076,0.1250253
0.0078697,0.8701333,0.0420416,0.0799555
0.0236367,0.7308255,0.0540471,0.1914908
0.0000007,0.0105623,0.9597210,0.0297160
0.0411527,0.5731249,0.0690459,0.3166764
0.0273083,0.6800389,0.0582269,0.2344259
0.0438265,0.7238222,0.0329850,0.1993665
0.0185003,0.8249023,0.0418083,0.1147891
0.0104364,0.8188009,0.0543612,0.1164014
0.0331530,0.5195826,0.0925382,0.3547262
0.0134527,0.3218537,0.2458915,0.4188020
0.0537160,0.6924887,0.0440663,0.2097291
0.0050978,0.7663903,0.0841820,0.1443300
0.0069002,0.1652927,0.2565989,0.5712081
0.0566367,0.3725205,0.0824723,0.4883704
0.0782236,0.5618423,0.0559964,0.3039377
0.0122345,0.8355572,0.0451492,0.1070592
0.0000001,0.0022521,0.9797074,0.0180402
0.0019139,0.9141518,0.0408932,0.0430409
0.0363492,0.4476947,0.0816187,0.4343373
0.0332424,0.3087387,0.1093542,0.5486646
0.0069242,0.7788496,0.0811140,0.1331122
0.0130725,0.6872436,0.0891276,0.2105563
0.0177442,0.1287662,0.1196171,0.7338725
0.0080074,0.8471734,0.0508380,0.0939811
0.2937301,0.5317369,0.0058839,0.1686492
0.0614568,0.6504333,0.0367915,0.2513185
0.0000094,0.0225389,0.9412803,0.0361713
0.0421248,0.6277600,0.0553931,0.2747221
0.0031896,0.7704464,0.0673401,0.1590237
0.0375948,0.1699640,0.1435129,0.6489283
0.0076221,0.8714830,0.0420325,0.0788624
0.0068223,0.0703851,0.2023396,0.7204529
0.0089359,0.2050821,0.2385301,0.5474519
0.0631872,0.7864136,0.0163484,0.1340507
0.0109761,0.0690376,0.1211341,0.7988521
0.8172163,0.0832975,0.0007240,0.0987622
0.0010110,0.7302857,0.1147906,0.1539126
0.0231423,0.6805065,0.0613271,0.2350240
0.0082185,0.8077699,0.0623599,0.1216517
0.0067000,0.8051519,0.0606526,0.1274955
0.0422580,0.6286287,0.0552482,0.2738652
0.0047710,0.8583856,0.0582654,0.0785779
0.0398921,0.7546550,0.0416699,0.1637829
0.0005304,0.7764913,0.1152538,0.1077244
0.0095735,0.8473369,0.0455585,0.0975310
0.0050771,0.1064830,0.3541612,0.5342786
0.0285970,0.7725739,0.0445201,0.1543090
0.0000278,0.0210421,0.9198011,0.0591289
0.0900974,0.5874850,0.0518321,0.2705854
0.0211549,0.2083488,0.1078709,0.6626255
0.0611083,0.0651105,0.0870127,0.7867685
0.0216652,0.6646038,0.0646073,0.2491235
0.0404891,0.4651277,0.0741638,0.4202194
0.0027239,0.0294484,0.4902620,0.4775657
0.0013851,0.8168203,0.0786417,0.1031530
0.1441416,0.6708561,0.0131018,0.1719005
0.0234580,0.7996314,0.0431049,0.1338058
0.2354582,0.5508705,0.0112339,0.2024374
0.1981502,0.1569746,0.0298508,0.6150244
0.0449979,0.5748109,0.0626010,0.3175902
0.0012783,0.9236170,0.0394567,0.0356478
0.0197252,0.5977252,0.0948762,0.2876734
0.0027222,0.8857979,0.0485146,0.0629652
0.0202872,0.4018987,0.1321398,0.4456744
0.1205687,0.6465065,0.0348886,0.1980362
0.0198647,0.1924175,0.2576765,0.5300412
0.0234807,0.6422632,0.0936524,0.2406037
0.9007256,0.0264099,0.0003758,0.0724887
0.0570672,0.7075810,0.0412391,0.1941127
0.0043595,0.5762159,0.2314288,0.1879960
0.6626396,0.1678023,0.0026940,0.1668641
0.0077231,0.8019584,0.0504803,0.1398383
0.0223061,0.7445847,0.0481240,0.1849851
0.0006255,0.8433225,0.0747504,0.0813015
0.0000001,0.0041828,0.9813747,0.0144426
0.2937836,0.4409748,0.0135929,0.2516487
0.0310275,0.7332324,0.0502948,0.1854452
0.7994837,0.0891503,0.0009432,0.1104229
0.0430135,0.3646723,0.1327211,0.4595929
0.5073935,0.2769530,0.0044127,0.2112408
0.0196480,0.6595677,0.0687060,0.2520782
0.0042441,0.8740773,0.0477354,0.0739431
0.0449358,0.4191808,0.0771286,0.4587547
0.0745598,0.7061774,0.0299727,0.1892900
0.0195783,0.7495310,0.0544184,0.1764722
0.0146119,0.8393760,0.0419782,0.1040340
0.0081379,0.8686952,0.0420499,0.0811168
0.0102526,0.7432431,0.0667045,0.1797999
0.6843536,0.1011626,0.0046099,0.2098738
0.7740046,0.1260136,0.0006650,0.0993166
0.0216433,0.7469136,0.0677792,0.1636638
0.0248040,0.4708805,0.0952895,0.4090260
0.0011510,0.8685846,0.0570794,0.0731849
0.0069043,0.8755305,0.0419982,0.0755670
0.0720324,0.4870573,0.0543945,0.3865159
0.0052009,0.6976560,0.1237450,0.1733981
0.8879809,0.0326602,0.0003888,0.0789701
0.0053335,0.1166692,0.3207687,0.5572287
0.0000036,0.0077449,0.9680550,0.0241966
0.0192608,0.3860168,0.1159627,0.4787596
0.0350823,0.6033251,0.0645459,0.2970468
0.7324533,0.0946682,0.0021674,0.1707110
0.0018255,0.9151922,0.0408355,0.0421469
0.0141142,0.2058994,0.1867694,0.5932170
0.0021536,0.0472765,0.5809484,0.3696215
0.0175867,0.2373050,0.1207965,0.6243119
0.0070390,0.1666016,0.2690597,0.5572997
0.0086674,0.8294001,0.0511803,0.1107522
0.0004625,0.8159911,0.0744799,0.1090665
0.0397073,0.6420844,0.0551790,0.2630294
0.0287511,0.6512533,0.0702084,0.2497872
0.0194914,0.7927325,0.0483320,0.1394443
0.0336450,0.5491600,0.0787343,0.3384607
0.0093214,0.8926746,0.0262688,0.0717352
0.7538422,0.1202484,0.0012707,0.1246388
0.0369823,0.3886366,0.0819270,0.4924539
0.0356227,0.7583041,0.0430597,0.1630134
0.0020028,0.8107151,0.0617770,0.1255051
0.0038420,0.8959954,0.0416229,0.0585395
0.0059101,0.8815191,0.0419256,0.0706451
0.0000002,0.0077026,0.9684076,0.0238895
0.5577444,0.1088365,0.0050915,0.3283276
0.0234024,0.4435402,0.0931331,0.4399242
0.0613278,0.7033346,0.0302008,0.2051369
0.0043710,0.8919586,0.0417277,0.0619426
0.0126714,0.2443203,0.1330773,0.6099311
0.0015140,0.7997460,0.0652494,0.1334904
0.0008393,0.9295772,0.0397820,0.0298015
0.0161083,0.8866731,0.0183418,0.0788769
0.0080685,0.8639189,0.0434169,0.0845956
0.0736840,0.6132902,0.0528385,0.2601873
0.4060310,0.1884449,0.0171411,0.3883829
0.0070468,0.8101562,0.0734373,0.1093596
0.0536818,0.6999143,0.0440110,0.2023929
0.0333103,0.4419037,0.1069220,0.4178639
0.0000301,0.0233681,0.9226556,0.0539461
0.0000115,0.0093060,0.9445445,0.0461380
0.0054095,0.8217133,0.0596529,0.1132243
0.0477860,0.6435920,0.0620652,0.2465568
0.0051296,0.8866042,0.0418415,0.0664246
0.0104186,0.8573430,0.0420729,0.0901655
0.0108185,0.8645111,0.0363894,0.0882811
0.0598314,0.7189720,0.0390442,0.1821523
0.0446076,0.6227111,0.0580980,0.2745833
0.0141056,0.3126680,0.2632815,0.4099449
0.0076229,0.0693729,0.2088324,0.7141716
0.0030630,0.9025337,0.0414135,0.0529898
0.0371173,0.5824702,0.0638281,0.3165844
0.0067456,0.8874272,0.0356069,0.0702201
0.6288409,0.1729496,0.0039881,0.1942212
0.0147716,0.8035917,0.0509457,0.1306909
0.0349333,0.5490181,0.0669116,0.3491370
0.0483169,0.0762911,0.0935896,0.7818025
0.0330497,0.4522093,0.0852167,0.4295245
0.0351585,0.5836717,0.0629998,0.3181701
0.0047142,0.8894790,0.0417838,0.0640229
0.9244884,0.0254280,0.0003846,0.0496992
0.0991811,0.2556902,0.0828093,0.5623193
0.0016013,0.8847149,0.0532498,0.0604339
0.0164537,0.5131283,0.1479201,0.3224978
0.0090235,0.8231354,0.0590418,0.1087994
0.0385057,0.6028985,0.0594723,0.2991236
0.0026191,0.4238343,0.0890015,0.4845451
0.0288487,0.7191827,0.0521664,0.1998022
0.0825300,0.7249721,0.0218620,0.1706359
0.0562158,0.6867219,0.0461666,0.2108956
0.0323811,0.7473040,0.0373038,0.1830110
0.0100036,0.6109124,0.0647304,0.3143536
0.0000830,0.0231693,0.8767568,0.0999908
0.0226616,0.5904076,0.0771360,0.3097948
0.0306983,0.5114794,0.0953646,0.3624576
0.0401834,0.6036516,0.0604388,0.2957262
0.0393516,0.2501690,0.1250077,0.5854716
0.0157730,0.2443761,0.1885226,0.5513283
0.1871223,0.3996131,0.0540322,0.3592323
0.0065339,0.1624191,0.3570696,0.4739773
0.8204293,0.0646109,0.0010733,0.1138866
0.0202059,0.2596629,0.1207955,0.5993356
0.0386014,0.6035887,0.0593608,0.2984491
0.7978841,0.1072097,0.0010427,0.0938634
0.0232741,0.7065962,0.0577628,0.2123669
0.0449668,0.6626710,0.0506503,0.2417118
0.7157785,0.1603377,0.0012528,0.1226310
0.0072219,0.8737139,0.0420150,0.0770491
0.0024657,0.8822646,0.0479271,0.0673425
0.0282679,0.2866193,0.0914562,0.5936565
0.0234223,0.5825584,0.1181000,0.2759193
0.0434834,0.5996754,0.0585670,0.2982742
0.0000000,0.0014897,0.9904780,0.0080324
0.0007563,0.9311728,0.0396287,0.0284423
0.0090256,0.7964371,0.0507018,0.1438354
0.7813748,0.0598898,0.0034311,0.1553042
0.0352425,0.4148733,0.0864827,0.4634015
0.0729590,0.2724628,0.0808415,0.5737368
0.0256739,0.6639238,0.0656079,0.2447944
0.0153796,0.6872625,0.0683026,0.2290553
0.0366043,0.6024539,0.0605535,0.3003881
0.0517769,0.5086818,0.0679406,0.3716006
0.0205668,0.5836594,0.1233248,0.2724490
0.0160870,0.3760527,0.0915968,0.5162635
0.0019544,0.8796963,0.0541694,0.0641800
0.0136646,0.4063552,0.2044050,0.3755751
0.5071847,0.3008901,0.0043718,0.1875534
0.0101209,0.8343822,0.0493483,0.1061485
0.0000006,0.0247286,0.9304655,0.0448052
0.0598314,0.7189720,0.0390442,0.1821523
0.0030763,0.7524720,0.0664469,0.1780046
0.0090700,0.8638808,0.0420686,0.0849807
0.0278357,0.5132492,0.0732062,0.3857088
0.0068413,0.7398894,0.1208698,0.1323994
0.8667127,0.0614500,0.0003429,0.0714944
0.1440512,0.2816784,0.0680731,0.5061974
0.0159599,0.8019590,0.0504816,0.1315995
0.0651232,0.5781916,0.0618891,0.2947961
0.0134088,0.2725497,0.1805960,0.5334455
0.0159272,0.6102048,0.1313870,0.2424811
0.0090893,0.8386651,0.0517476,0.1004979
0.0549756,0.6835175,0.0427603,0.2187465
0.0515439,0.5174598,0.0663123,0.3646840
0.0000001,0.0060530,0.9730657,0.0208813
0.1503099,0.6005977,0.0232801,0.2258123
0.0109743,0.8934925,0.0227571,0.0727760
0.0102954,0.2261295,0.2484420,0.5151331
0.0218046,0.7972930,0.0446168,0.1362856
0.0413807,0.7579706,0.0405864,0.1600623
0.0121377,0.3125588,0.1081782,0.5671252
0.0000119,0.0243281,0.8882629,0.0873971
0.0076157,0.8739923,0.0401522,0.0782398
0.4305094,0.2280055,0.0084989,0.3329862
0.0391010,0.4882291,0.0818381,0.3908320
0.0257698,0.7426987,0.0460134,0.1855182
0.0443965,0.6421442,0.0529708,0.2604885
0.0265814,0.4939484,0.0847476,0.3947226
0.0106120,0.8301741,0.0482621,0.1109518
0.0054119,0.8047156,0.0808681,0.1090044
0.0007087,0.9321336,0.0395319,0.0276257
0.0110022,0.0537363,0.1178247,0.8174368
0.0339756,0.5613349,0.0729422,0.3317472
0.0299730,0.7891940,0.0411235,0.1397096
0.0001772,0.3765709,0.5179946,0.1052573
0.0420411,0.6272128,0.0554843,0.2752616
0.0049831,0.8503490,0.0492053,0.0954627
0.0068382,0.8728633,0.0428538,0.0774446
0.0024597,0.9082558,0.0411838,0.0481006
0.0133685,0.3131086,0.2049625,0.4685604
0.0965587,0.5327461,0.0358725,0.3348227
0.0427631,0.6318933,0.0547020,0.2706417
0.0184305,0.1409947,0.2276347,0.6129401
0.0133468,0.3356297,0.0963850,0.5546385
0.0280605,0.1545838,0.1694759,0.6478797
0.0158956,0.7437913,0.0734691,0.1668441
0.0163982,0.2513177,0.1964602,0.5358239
0.9651968,0.0080122,0.0000609,0.0267301
0.1477868,0.4397897,0.0577677,0.3546557
0.0374062,0.7091042,0.0462925,0.2071970
0.0178902,0.7580067,0.0601464,0.1639569
0.0358367,0.3232594,0.1555772,0.4853266
0.0733655,0.5932799,0.0468739,0.2864807
0.0321570,0.7407709,0.0555530,0.1715191
0.8687939,0.0712171,0.0004358,0.0595533
0.0132178,0.8450221,0.0420232,0.0997368
0.0157150,0.8458923,0.0365254,0.1018674
0.0106138,0.1501229,0.1569959,0.6822673
0.0089972,0.3011952,0.3066029,0.3832046
0.0103223,0.0519058,0.1224975,0.8152745
0.0133999,0.1246988,0.1234261,0.7384753
0.0066746,0.8632263,0.0469695,0.0831295
0.0000038,0.0073810,0.9649161,0.0276991
0.0293908,0.4056313,0.0960536,0.4689244
0.0169462,0.7972428,0.0484139,0.1373969
0.0152685,0.8124495,0.0488690,0.1234130
0.0002084,0.7749826,0.0987627,0.1260463
0.1717099,0.6104908,0.0116011,0.2061983
0.0367548,0.3685123,0.0835276,0.5112051
0.0162121,0.2530284,0.1758197,0.5549397
0.0457059,0.6285164,0.0738127,0.2519648
0.0400739,0.6207260,0.0600130,0.2791871
0.0034449,0.0913066,0.4084221,0.4968264
0.0115311,0.7827503,0.0751840,0.1305345
0.0048768,0.8569987,0.0571156,0.0810089
0.0072699,0.7952805,0.0865364,0.1109132
0.0280437,0.7946713,0.0412491,0.1360358
0.0124296,0.8483465,0.0420434,0.0971805
0.0604402,0.3239091,0.0802697,0.5353811
0.0190280,0.2737865,0.2834604,0.4237251
0.0119415,0.5293107,0.1679364,0.2908113
0.0002803,0.6828145,0.2047977,0.1121075
0.0004413,0.5545067,0.2935604,0.1514914
0.0163070,0.7555637,0.0631293,0.1650001
0.0100898,0.1129011,0.2320784,0.6449307
0.0390845,0.6432977,0.0570807,0.2605373
0.0138194,0.3173115,0.1378967,0.5309722
0.0000012,0.0100963,0.9694861,0.0204164
0.0173003,0.2378363,0.2014674,0.5433958
0.0000026,0.0105594,0.9655318,0.0239061
0.0590418,0.7120886,0.0405548,0.1883147
0.0982496,0.4576567,0.0690015,0.3750922
0.0115651,0.2533307,0.1832396,0.5518646
0.0437770,0.6383104,0.0536212,0.2642916
0.0682065,0.5222375,0.0619645,0.3475916
0.6469964,0.0553199,0.0029436,0.2947402
0.7223590,0.1545112,0.0012293,0.1219005
0.0000180,0.0667213,0.8851239,0.0481368
0.0465458,0.6549444,0.0507734,0.2477364
0.0146339,0.1670647,0.1251203,0.6931810
0.0011352,0.9245420,0.0402122,0.0341107
0.0275546,0.4174614,0.0892774,0.4657067
0.7418590,0.1512049,0.0021381,0.1047979
0.0099065,0.8597717,0.0420740,0.0882478
0.0257531,0.8014111,0.0413943,0.1314417
0.0465863,0.6499903,0.0520332,0.2513902
0.0100344,0.5235673,0.1608432,0.3055552
0.0106907,0.0752628,0.1946101,0.7194365
0.0442881,0.6179640,0.0591825,0.2785653
0.0059559,0.8652668,0.0479473,0.0808300
0.1461869,0.5141631,0.0482058,0.2914443
0.0511235,0.4166113,0.0757534,0.4565119
0.0087042,0.8657386,0.0420630,0.0834943
0.0030980,0.9022217,0.0414247,0.0532556
0.0122966,0.2978244,0.1204561,0.5694230
0.0724598,0.4844733,0.0638724,0.3791946
0.0001284,0.0190690,0.8395712,0.1412315
0.0125981,0.1972530,0.1434872,0.6466616
0.0118892,0.1454908,0.2534742,0.5891459
0.0046015,0.8491043,0.0542945,0.0919996
0.0206473,0.2113112,0.1455639,0.6224775
0.7469593,0.1108976,0.0016915,0.1404514
0.0270575,0.4901995,0.0929650,0.3897781
0.0387240,0.6012390,0.0626363,0.2974007
0.0246761,0.3325643,0.1747528,0.4680067
0.0665399,0.6008521,0.0551006,0.2775073
0.0057124,0.8576884,0.0515631,0.0850361
0.0180863,0.2952341,0.0965109,0.5901687
0.1963787,0.4891497,0.0226909,0.2917807
0.0137751,0.3422228,0.0956258,0.5483764
0.1054522,0.5370587,0.0551470,0.3023420
0.0476299,0.6144468,0.0557196,0.2822037
0.0095526,0.0754852,0.1424295,0.7725325
0.0185464,0.8613819,0.0252752,0.0947966
0.0188254,0.7787673,0.0461470,0.1562604
0.0348139,0.3504249,0.1458934,0.4688677
0.0645058,0.2525210,0.1278673,0.5551059
0.0138985,0.1874669,0.2443354,0.5542991
0.0212470,0.0571662,0.1075865,0.8140003
0.0873927,0.6350011,0.0449765,0.2326296
0.1304964,0.6844996,0.0143523,0.1706517
0.3760580,0.1263247,0.0450567,0.4525605
0.0284675,0.3051961,0.0987671,0.5675693
0.0172623,0.3510304,0.1143289,0.5173784
0.0468203,0.6565248,0.0504992,0.2461557
0.0014132,0.8560801,0.0586906,0.0838161
0.0303381,0.4800445,0.0793385,0.4102788
0.0098999,0.8098866,0.0537823,0.1264312
0.0117100,0.7681763,0.0512277,0.1688860
0.0335006,0.3193101,0.1403329,0.5068564
0.0252310,0.6404980,0.0643824,0.2698888
0.3803324,0.0177046,0.0072106,0.5947524
0.0018208,0.9152485,0.0408323,0.0420983
0.0189995,0.8231568,0.0417831,0.1160607
0.0441030,0.6187381,0.0588707,0.2782882
0.0078658,0.8275756,0.0650872,0.0994713
0.0598314,0.7189720,0.0390442,0.1821523
0.7464188,0.1110020,0.0024651,0.1401141
0.0467674,0.4997728,0.0728359,0.3806239
0.0100722,0.8238209,0.0504204,0.1156863
0.0009024,0.5993147,0.1152268,0.2845560
0.0421934,0.7375814,0.0430756,0.1771495
0.8574622,0.0611833,0.0004572,0.0808974
0.0426859,0.6313972,0.0547851,0.2711318
0.0342155,0.7469899,0.0460970,0.1726977
0.0097990,0.8602892,0.0420738,0.0878379
0.3084858,0.5042323,0.0065454,0.1807365
0.0043108,0.8924040,0.0417170,0.0615681
0.0070028,0.7716770,0.0718112,0.1495090
0.0175581,0.6961849,0.0730947,0.2131623
0.0047247,0.7541362,0.0616224,0.1795166
0.0082136,0.8603426,0.0447925,0.0866514
0.0093941,0.0681716,0.2370549,0.6853794
0.0291160,0.2095280,0.0959855,0.6653706
0.0314122,0.0356481,0.0738688,0.8590709
0.0202997,0.8357682,0.0338137,0.1101184
0.0144156,0.7859882,0.0530125,0.1465837
0.0671086,0.5937235,0.0217601,0.3174079
0.0124481,0.2221459,0.2344957,0.5309104
0.0089135,0.0786587,0.1599398,0.7524880
0.0483277,0.7414518,0.0402495,0.1699709
0.0530858,0.5020177,0.0672408,0.3776557
0.0083740,0.1965618,0.2351379,0.5599264
0.0014825,0.8693317,0.0611960,0.0679898
0.0257233,0.4434949,0.1303634,0.4004184
0.0247627,0.8044124,0.0414554,0.1293694
0.0399502,0.6276336,0.0564666,0.2759497
0.0095874,0.2143651,0.2694074,0.5066401
0.2407545,0.5730861,0.0169733,0.1691861
0.1252479,0.6778665,0.0291444,0.1677411
0.0000017,0.0120952,0.9611942,0.0267090
0.0323596,0.7826415,0.0409649,0.1440341
0.0200673,0.7056817,0.0551745,0.2190764
0.0059233,0.8590175,0.0483804,0.0866788
0.0877733,0.6835434,0.0254895,0.2031938
0.0011308,0.9204535,0.0421268,0.0362889
0.0028720,0.9042720,0.0413487,0.0515073
0.0291682,0.1990961,0.1798075,0.5919281
0.0150439,0.7659729,0.0560197,0.1629635
0.0002705,0.7664468,0.1400581,0.0932247
0.0164534,0.1005292,0.2203093,0.6627081
0.0107822,0.2222577,0.2579820,0.5089781
0.2511800,0.4923457,0.0156167,0.2408575
0.2412945,0.3827721,0.0458232,0.3301101
0.0132929,0.7505271,0.0922711,0.1439089
0.9090601,0.0178329,0.0003370,0.0727699
0.8206584,0.0563909,0.0008925,0.1220582
0.3703236,0.4365485,0.0058902,0.1872377
0.0418060,0.6642811,0.0518860,0.2420268
0.0238510,0.7466263,0.0442122,0.1853104
0.0184049,0.1845556,0.1849362,0.6121032
0.1669182,0.5688670,0.0176187,0.2465960
0.1238895,0.2916681,0.0434717,0.5409707
0.0297775,0.5316244,0.0705059,0.3680921
0.0290747,0.6191326,0.0650429,0.2867498
0.0288685,0.5198839,0.0726842,0.3785632
0.0032837,0.9005973,0.0414810,0.0546380
0.0105333,0.7996318,0.0550784,0.1347565
0.0038003,0.0449829,0.3346348,0.6165822
0.0158044,0.7658707,0.0552294,0.1630956
0.0012735,0.0929299,0.6213108,0.2844858
0.0118121,0.6775744,0.0898835,0.2207300
0.0340315,0.7601718,0.0457500,0.1600466
0.0139020,0.5052130,0.1169980,0.3638870
0.0164604,0.3325307,0.1370005,0.5140083
0.0295832,0.7858659,0.0426474,0.1419036
0.0634016,0.5851561,0.0552218,0.2962205
0.0005792,0.6311500,0.2502694,0.1180014
0.0420620,0.5939580,0.0645603,0.2994196
0.0111592,0.2438120,0.2157423,0.5292865
0.0685570,0.6701601,0.0430437,0.2182391
0.0410386,0.7562524,0.0394327,0.1632762
0.0216123,0.4181861,0.1178394,0.4423622
0.0278305,0.5119157,0.0733531,0.3869007
0.0656184,0.3778227,0.0820668,0.4744922
0.0005787,0.7869708,0.1139843,0.0984662
0.0760936,0.4050885,0.0713749,0.4474430
0.4329612,0.0784195,0.0079279,0.4806914
0.0319923,0.1143554,0.1614951,0.6921571
0.1192297,0.3256097,0.0474185,0.5077422
0.0092897,0.2069823,0.2664406,0.5172873
0.0014785,0.9195776,0.0405681,0.0383757
0.0732590,0.6851607,0.0395510,0.2020294
0.0054159,0.1834298,0.3743570,0.4367974
0.0456685,0.7897169,0.0255701,0.1390444
0.1050396,0.2661627,0.0822603,0.5465373
0.0292957,0.4873895,0.1323669,0.3509477
0.0491078,0.2562399,0.0977453,0.5969070
0.0596268,0.7171972,0.0394332,0.1837428
0.0093274,0.0258396,0.2586230,0.7062100
0.0047126,0.0552242,0.3449428,0.5951205
0.0382539,0.7673594,0.0405625,0.1538242
0.1792426,0.6507347,0.0089431,0.1610795
0.0026724,0.9003922,0.0434162,0.0535191
0.0071697,0.8385687,0.0514517,0.1028098
0.0263722,0.1437872,0.0933947,0.7364459
0.0593894,0.7151301,0.0398867,0.1855938
0.0088677,0.8649033,0.0420658,0.0841632
0.0163169,0.7554410,0.0629859,0.1652562
0.0060620,0.8573977,0.0485546,0.0879855
0.1698523,0.6574720,0.0097258,0.1629498
0.5999680,0.2271075,0.0030162,0.1699084
0.0651783,0.6504733,0.0472811,0.2370674
0.0179708,0.1660931,0.2259607,0.5899754
0.0106243,0.1527808,0.1817786,0.6548164
0.0094308,0.1977614,0.1890375,0.6037703
0.0065371,0.8776860,0.0419752,0.0738018
0.0436780,0.6376916,0.0537258,0.2649047
0.0203041,0.0467488,0.1499781,0.7829691
0.0251430,0.8065817,0.0378972,0.1303781
0.0492888,0.3990556,0.0776635,0.4739920
0.0000864,0.4714073,0.4146511,0.1138553
0.0000001,0.0048698,0.9787007,0.0164295
0.0275993,0.4274198,0.0886557,0.4563252
0.0800527,0.3896004,0.0580808,0.4722661
0.0068384,0.7832059,0.0766218,0.1333338
0.0478936,0.2222133,0.0873939,0.6424991
0.0005692,0.7274826,0.1582582,0.1136900
0.0054196,0.8650756,0.0476970,0.0818079
0.0030201,0.9029188,0.0413995,0.0526616
0.0000014,0.0238005,0.9226593,0.0535389
0.0057450,0.8620328,0.0497212,0.0825010
0.0209679,0.4430566,0.1797412,0.3562342
0.0179478,0.0669986,0.2068968,0.7081568
0.0480454,0.6634333,0.0492927,0.2392285
0.0094999,0.7817189,0.0604404,0.1483409
0.0167477,0.2093657,0.2075890,0.5662977
0.0000044,0.0160785,0.9212973,0.0626197
0.0067431,0.8607617,0.0463627,0.0861326
0.0107862,0.7941413,0.0558694,0.1392030
0.0618435,0.7298340,0.0327556,0.1755669
0.0270654,0.2228415,0.1273570,0.6227362
0.0324648,0.6226233,0.0611336,0.2837783
0.0027476,0.6684566,0.1769304,0.1518655
0.0033291,0.8975244,0.0424358,0.0567107
0.1092625,0.3295044,0.0462897,0.5149433
0.0049832,0.6992118,0.1230316,0.1727733
0.0522713,0.6723382,0.0486115,0.2267790
0.0235541,0.7158653,0.0636947,0.1968860
0.0125524,0.3910854,0.2350209,0.3613413
0.0023873,0.0577200,0.3796407,0.5602521
0.0367236,0.0456331,0.0959434,0.8216997
0.0091263,0.2205527,0.2761299,0.4941910
0.0139948,0.2767650,0.1351485,0.5740917
0.0101421,0.8208492,0.0517359,0.1172727
0.0195275,0.6163869,0.0909928,0.2730928
0.0553538,0.5410277,0.0941386,0.3094798
0.7668362,0.0931451,0.0027663,0.1372524
0.0206858,0.4169629,0.1185263,0.4438249
0.0116735,0.8383356,0.0451385,0.1048524
0.0580804,0.7035843,0.0424284,0.1959069
0.0006625,0.0182404,0.7336677,0.2474294
0.0131872,0.3201155,0.1018170,0.5648803
0.0224665,0.7633823,0.0498961,0.1642550
0.0581417,0.7041310,0.0423077,0.1954195
0.0097903,0.2255857,0.2147672,0.5498567
0.0082480,0.7415786,0.1207143,0.1294592
0.0092457,0.8630019,0.0420705,0.0856819
0.0415001,0.4688129,0.0779043,0.4117826
0.1985056,0.5014324,0.0190227,0.2810392
0.0047180,0.7726583,0.0750308,0.1475929
0.0060916,0.8764651,0.0430875,0.0743560
0.0232020,0.3567868,0.1073252,0.5126859
0.0058825,0.7860840,0.0566587,0.1513749
0.0016562,0.9016148,0.0472189,0.0495101
0.0003007,0.6648840,0.2290003,0.1058150
0.0157234,0.1817418,0.1323807,0.6701539
0.0009290,0.8429218,0.0707155,0.0854336
0.0433302,0.5111510,0.0512175,0.3943014
0.0064010,0.8624635,0.0465055,0.0846300
0.0099538,0.8672882,0.0378437,0.0849142
0.0509339,0.5529287,0.0712088,0.3249287
0.8112617,0.0219807,0.0008605,0.1658971
0.0569884,0.4959695,0.0669536,0.3800885
0.0348351,0.7583357,0.0434290,0.1634003
0.0287235,0.3603524,0.0958046,0.5151196
0.0280117,0.5149577,0.0729575,0.3840731
0.0412821,0.6221905,0.0563184,0.2802090
0.0002659,0.0179524,0.8251873,0.1565944
0.0180574,0.6020875,0.0755438,0.3043113
0.4645749,0.2186782,0.0220612,0.2946857
0.0825429,0.4235630,0.0684349,0.4254591
0.1691345,0.5946395,0.0169961,0.2192298
0.0003789,0.7812014,0.0853786,0.1330411
0.0097948,0.5703219,0.1466277,0.2732556
0.0643529,0.6876544,0.0424953,0.2054974
0.0174563,0.7846389,0.0502870,0.1476179
0.3597527,0.4509438,0.0057923,0.1835111
0.0163025,0.7074505,0.0559082,0.2203388
0.4327315,0.0778807,0.0097774,0.4796103
0.0514525,0.0614541,0.0835518,0.8035417
0.0108517,0.8030010,0.0567376,0.1294096
0.0101229,0.2293346,0.3511930,0.4093495
0.0543561,0.7364427,0.0277627,0.1814385
0.0000004,0.0085838,0.9586321,0.0327837
0.0013469,0.7504619,0.1262971,0.1218941
0.0487775,0.7247972,0.0420710,0.1843542
0.0159416,0.7373900,0.0550322,0.1916362
0.0038730,0.7978317,0.1065734,0.0917219
0.0598314,0.7189720,0.0390442,0.1821523
0.0099053,0.2127547,0.2103679,0.5669721
0.0001040,0.8515001,0.0882670,0.0601289
0.1404930,0.2053685,0.0751544,0.5789840
0.0295786,0.8579091,0.0158998,0.0966124
0.0038541,0.8951832,0.0418672,0.0590955
0.0141580,0.7254078,0.0640041,0.1964300
0.0123104,0.6149567,0.1303521,0.2423808
0.8271810,0.0389390,0.0022541,0.1316259
0.2009268,0.5161070,0.0220791,0.2608872
0.0008804,0.9288221,0.0398515,0.0304459
0.0253226,0.6934220,0.0579617,0.2232938
0.8563145,0.0499704,0.0015236,0.0921915
0.0015088,0.3792367,0.3498444,0.2694100
0.6319604,0.2078632,0.0024397,0.1577368
0.0200649,0.4683631,0.1469290,0.3646429
0.0676297,0.3204233,0.0789080,0.5330390
0.0335488,0.2313813,0.1597946,0.5752752
0.0252193,0.5756118,0.1170394,0.2821295
0.0131388,0.2628624,0.1249562,0.5990424
0.0027836,0.8816260,0.0497522,0.0658381
0.0107407,0.8254662,0.0491633,0.1146298
0.0112144,0.8297994,0.0495485,0.1094376
0.0086425,0.8275574,0.0550810,0.1087191
0.0374050,0.5948319,0.0607684,0.3069944
0.0540123,0.6938829,0.0438086,0.2082961
0.0402350,0.2700293,0.1072601,0.5824757
0.0346608,0.5736195,0.0641170,0.3276027
0.0257427,0.4857647,0.0856330,0.4028595
0.4055437,0.1555422,0.0115073,0.4274068
0.0453947,0.6481837,0.0519391,0.2544825
0.0380753,0.5997736,0.0599759,0.3021752
0.0016358,0.9123150,0.0428990,0.0431504
0.0010717,0.9255518,0.0401319,0.0332445
0.0022678,0.0658486,0.4538760,0.4780077
0.0046071,0.8902422,0.0417672,0.0633835
0.0152831,0.8326787,0.0420329,0.1100053
0.0087919,0.8486206,0.0476904,0.0948973
0.9406286,0.0147717,0.0002469,0.0443525
0.0795931,0.2972470,0.0823767,0.5407832
0.0167262,0.5972545,0.0577511,0.3282680
0.0566170,0.7056372,0.0416081,0.1961377
0.0143895,0.7915033,0.0519853,0.1421219
0.6731682,0.1250933,0.0041255,0.1976131
0.9676812,0.0080159,0.0000794,0.0242235
0.0179896,0.6101007,0.0845460,0.2873638
0.0021861,0.9111083,0.0410507,0.0456549
0.2076222,0.2873005,0.0249589,0.4801183
0.0029113,0.3973139,0.1707562,0.4290186
0.0877622,0.6933261,0.0273367,0.1915749
0.0068713,0.1030683,0.2356689,0.6543916
0.0757010,0.3941849,0.0790475,0.4510666
0.0027943,0.8374410,0.0737499,0.0860149
0.0156819,0.2128207,0.1812052,0.5902923
0.5441675,0.1981466,0.0149891,0.2426968
0.0231342,0.3593011,0.1037130,0.5138517
0.0002215,0.0504949,0.8174987,0.1317848
0.0268993,0.6527367,0.0617357,0.2586284
0.0033856,0.0876236,0.4192431,0.4897478
0.7692239,0.1166711,0.0010046,0.1131004
0.0766024,0.6842216,0.0399452,0.1992308
0.0178834,0.4012029,0.1791484,0.4017653
0.0552091,0.6784323,0.0479842,0.2183744
0.2658962,0.5638743,0.0059879,0.1642415
0.0121650,0.4620132,0.1381697,0.3876520
0.0000004,0.0055330,0.9829472,0.0115194
0.0055779,0.8727190,0.0451431,0.0765600
0.0029395,0.0692652,0.4519211,0.4758742
0.0065468,0.1472756,0.3231725,0.5230051
0.0056835,0.8829569,0.0419040,0.0694556
0.0244897,0.5813318,0.1232825,0.2708961
0.0434298,0.1715288,0.1084985,0.6765429
0.0751621,0.5793272,0.0579804,0.2875302
0.0085685,0.7863201,0.0513427,0.1537686
0.0408052,0.7610840,0.0403853,0.1577255
0.0086133,0.8791110,0.0348991,0.0773766
0.0116562,0.2089751,0.2024809,0.5768878
0.4774854,0.1060177,0.0090422,0.4074548
0.0081850,0.1559438,0.2075167,0.6283545
0.0374039,0.5906754,0.0618619,0.3100589
0.5314670,0.2944617,0.0032719,0.1707993
0.0063879,0.1579726,0.2650220,0.5706174
0.0688835,0.0471505,0.0792235,0.8047425
0.0491496,0.5376587,0.0857679,0.3274239
0.0036823,0.8923884,0.0432466,0.0606826
0.0004401,0.0833539,0.7276381,0.1885678
0.0305585,0.2062388,0.1202567,0.6429461
0.8988315,0.0259196,0.0004170,0.0748319
0.0291966,0.4850142,0.1120293,0.3737598
0.0004792,0.8457255,0.0785477,0.0752476
0.0067462,0.8643720,0.0463892,0.0824925
0.0978801,0.7042418,0.0212246,0.1766535
0.0179671,0.3677805,0.1600093,0.4542432
0.0032494,0.8487136,0.0588273,0.0892097
0.0038982,0.8955525,0.0416353,0.0589140
0.0182298,0.8496456,0.0297556,0.1023690
0.0254270,0.6820408,0.0622464,0.2302859
0.0499515,0.6065657,0.0587800,0.2847029
0.0333429,0.5523762,0.0785809,0.3357002
0.9847944,0.0018940,0.0000221,0.0132896
0.0135854,0.6231282,0.1116074,0.2516791
0.0095568,0.8614668,0.0420729,0.0869034
0.0268444,0.4484365,0.1490339,0.3756853
0.0040346,0.7770879,0.1224223,0.0964553
0.0059576,0.1539023,0.3653968,0.4747433
0.8811312,0.0464272,0.0005202,0.0719212
0.0405850,0.6563919,0.0562961,0.2467269
0.0322401,0.4737297,0.0760739,0.4179563
0.0598314,0.7189720,0.0390442,0.1821523
0.0000125,0.0125803,0.9147874,0.0726198
0.0248335,0.4753138,0.0886690,0.4111837
0.0197258,0.3757807,0.1026396,0.5018539
0.0576321,0.7099843,0.0407807,0.1916029
0.0338136,0.4550242,0.0966305,0.4145317
0.0213041,0.1330379,0.1080799,0.7375782
0.0000575,0.7789666,0.1726895,0.0482863
0.0627447,0.4077426,0.0767081,0.4528046
0.0010858,0.9084654,0.0478837,0.0425650
0.1165630,0.3237354,0.0502814,0.5094200
0.0816334,0.7122502,0.0267844,0.1793320
0.0314646,0.5467870,0.0682348,0.3535138
0.0112727,0.1901591,0.1666625,0.6319058
0.0121898,0.5897593,0.1733496,0.2247012
0.0000000,0.0015579,0.9922207,0.0062214
0.3058454,0.1151666,0.0148251,0.5641629
0.0588682,0.5279961,0.0631795,0.3499563
0.0026830,0.9060560,0.0412777,0.0499834
0.8862941,0.0383943,0.0007719,0.0745396
0.0136479,0.1573018,0.1337679,0.6952823
0.0054226,0.8659239,0.0474445,0.0812090
0.0327206,0.0772644,0.0847795,0.8052355
0.0662680,0.4329748,0.0708820,0.4298753
0.0554120,0.4474487,0.0882261,0.4089133
0.0584117,0.6291390,0.0554884,0.2569609
0.0238801,0.7299176,0.0547655,0.1914367
0.0221814,0.4796215,0.0796029,0.4185942
0.0170244,0.6480704,0.1274303,0.2074748
0.0248653,0.8040988,0.0414491,0.1295867
0.0097434,0.8605585,0.0420737,0.0876244
0.0950359,0.3063915,0.0798903,0.5186823
0.0447628,0.6825491,0.0570035,0.2156846
0.0073888,0.8727759,0.0420228,0.0778125
0.6627105,0.1979842,0.0017176,0.1375876
0.0360084,0.6430659,0.0579075,0.2630183
0.0930457,0.0592039,0.0693808,0.7783695
0.9278214,0.0225485,0.0002297,0.0494004
0.0143348,0.3632850,0.2313474,0.3910328
0.0175969,0.0816484,0.1985362,0.7022185
0.1420834,0.6767963,0.0127043,0.1684159
0.0482309,0.6644593,0.0491125,0.2381973
0.0431453,0.6562158,0.0535344,0.2471045
0.0000023,0.0044544,0.9738481,0.0216952
0.0128251,0.7672427,0.0584106,0.1615216
0.0000058,0.0225133,0.9016444,0.0758364
0.0000001,0.0035055,0.9797533,0.0167410
0.0361887,0.4941022,0.1313341,0.3383752
0.0198484,0.8050196,0.0457012,0.1294308
0.0436322,0.5896634,0.0597475,0.3069569
0.0578695,0.0717764,0.0777948,0.7925592
0.0228009,0.2819964,0.1051514,0.5900513
0.0136846,0.8306277,0.0447374,0.1109503
0.0598314,0.7189720,0.0390442,0.1821523
0.0068104,0.1577631,0.3125281,0.5228986
0.0128245,0.2868374,0.1984445,0.5018936
0.0006966,0.7892696,0.1044659,0.1055680
0.0177437,0.2826703,0.1110704,0.5885156
0.0802886,0.7168218,0.0215248,0.1813649
0.2403513,0.3128231,0.0318199,0.4150057
0.0008259,0.9298284,0.0397584,0.0295871
0.0204794,0.8912848,0.0126325,0.0756031
0.0151271,0.2131647,0.1982135,0.5734947
0.0086983,0.8281167,0.0480923,0.1150928
0.0579365,0.7112629,0.0405358,0.1902650
0.0441428,0.3445905,0.0830244,0.5282423
0.0047700,0.8869145,0.0424782,0.0658373
0.0155532,0.6166436,0.0745932,0.2932099
0.0037806,0.7438809,0.0639611,0.1883774
0.0648202,0.3818313,0.0753793,0.4779691
0.0080074,0.1086500,0.1918835,0.6914592
0.1733230,0.2679881,0.0359804,0.5227084
0.0038659,0.8958063,0.0416282,0.0586995
0.0029953,0.0625079,0.3974857,0.5370111
0.1270770,0.6729357,0.0160834,0.1839038
0.0183306,0.4039395,0.0921977,0.4855321
0.0799081,0.7129863,0.0275103,0.1795954
0.0386859,0.7662835,0.0405326,0.1544979
0.0053008,0.8689129,0.0482962,0.0774902
0.0173203,0.5292821,0.1266837,0.3267139
0.0025753,0.9071038,0.0412339,0.0490869
0.1422215,0.6554219,0.0143405,0.1880160
0.0000387,0.0378930,0.8922820,0.0697864
0.0060958,0.8803626,0.0419418,0.0715999
0.0000004,0.0045168,0.9675363,0.0279464
0.0091601,0.2107439,0.2208461,0.5592498
0.0949385,0.6521944,0.0319809,0.2208862
0.0069729,0.8322971,0.0626751,0.0980548
0.0435094,0.7437080,0.0311773,0.1816052
0.0209909,0.4394797,0.0834863,0.4560432
0.0106975,0.4726609,0.2419313,0.2747104
0.1246155,0.6468155,0.0163244,0.2122446
0.0339070,0.4413622,0.0847920,0.4399388
0.0785811,0.6944148,0.0332803,0.1937238
0.0100396,0.0830763,0.1351582,0.7717259
0.0000131,0.2330252,0.6759462,0.0910154
0.0382651,0.6011562,0.0597533,0.3008254
0.1496324,0.1928774,0.0385288,0.6189613
0.0832361,0.7033210,0.0296971,0.1837459
0.0118418,0.8508949,0.0420557,0.0952076
0.4092647,0.2237802,0.0227768,0.3441782
0.0000044,0.0145282,0.9560475,0.0294199
0.0017876,0.9156469,0.0408096,0.0417558
0.0006319,0.7218951,0.0984750,0.1789979
0.0084344,0.8671347,0.0420575,0.0823734
0.0598314,0.7189720,0.0390442,0.1821523
0.0153698,0.8224571,0.0448676,0.1173053
0.2342613,0.2518537,0.0275129,0.4863720
0.0000217,0.3243567,0.6056202,0.0700014
0.0000018,0.0187529,0.9315478,0.0496975
0.0000007,0.0254091,0.9414538,0.0331364
0.0086333,0.2106730,0.2033112,0.5773824
0.0304338,0.1199902,0.0904370,0.7591389
0.0109741,0.1084398,0.1498296,0.7307565
0.0179297,0.6277837,0.1042474,0.2500392
0.0285705,0.4933004,0.1123135,0.3658156
0.0257780,0.2365296,0.1605679,0.5771245
0.0116641,0.1882880,0.2372014,0.5628465
0.0067084,0.8766726,0.0419864,0.0746325
0.0407828,0.6188294,0.0568735,0.2835142
0.0012444,0.9228798,0.0403382,0.0355376
0.0461682,0.7819144,0.0222907,0.1496267
0.0055694,0.8836921,0.0418923,0.0688461
0.0204690,0.6760316,0.0642722,0.2392272
0.6695363,0.1953149,0.0015921,0.1335567
0.0130007,0.8635314,0.0330851,0.0903827
0.0781441,0.6950433,0.0376827,0.1891300
0.0512907,0.1766886,0.1420113,0.6300095
0.9523921,0.0128521,0.0002136,0.0345422
0.0788686,0.5660481,0.0419081,0.3131752
0.0089919,0.8642739,0.0420676,0.0846666
0.0000000,0.0012984,0.9913283,0.0073733
0.0164085,0.7948861,0.0510524,0.1376531
0.0374798,0.7693010,0.0406160,0.1526031
0.0044604,0.8913031,0.0417432,0.0624932
0.0011410,0.9244518,0.0402192,0.0341879
0.0230584,0.4004812,0.1594443,0.4170160
0.0131631,0.8491959,0.0399664,0.0976745
0.0270789,0.2536064,0.1526802,0.5666344
0.0406694,0.5999237,0.0581152,0.3012917
0.0293400,0.2609942,0.1858757,0.5237901
0.0119903,0.5916883,0.1117039,0.2846174
0.0185929,0.7308770,0.0582577,0.1922724
0.0353569,0.4541612,0.1066180,0.4038639
0.0908107,0.5004405,0.0627088,0.3460399
0.2743818,0.5744392,0.0122713,0.1389078
0.0416687,0.5338003,0.0667212,0.3578098
0.0358021,0.5826376,0.0627038,0.3188565
0.0120778,0.1663380,0.2266804,0.5949038
0.0112607,0.1512126,0.2668675,0.5706592
0.0064148,0.1501255,0.3392783,0.5041814
0.7595829,0.0909260,0.0019001,0.1475909
0.0000001,0.0031819,0.9822465,0.0145714
0.0231271,0.4553868,0.0940792,0.4274070
0.0502534,0.6570928,0.0517096,0.2409442
0.0257751,0.6623042,0.0614722,0.2504484
0.0029392,0.0810801,0.4371921,0.4787886
0.0040280,0.8839391,0.0460925,0.0659403
0.0428392,0.7168384,0.0423274,0.1979948
0.0011184,0.9240658,0.0405358,0.0342799
0.0008852,0.9287357,0.0398594,0.0305197
0.0120458,0.6993833,0.0795934,0.2089773
0.0000014,0.0042064,0.9602027,0.0355895
0.0256743,0.6188998,0.0692308,0.2861950
0.0132760,0.8370981,0.0431740,0.1064520
0.0202667,0.7507314,0.0702968,0.1587051
0.0314198,0.5427771,0.0692933,0.3565097
0.0268873,0.5038963,0.0745591,0.3946574
0.0000308,0.0209319,0.9188521,0.0601853
0.0048847,0.0789420,0.3668610,0.5493124
0.0171054,0.1096538,0.1897700,0.6834708
0.0103420,0.8577023,0.0420733,0.0898825
0.0149091,0.8382075,0.0419673,0.1049161
0.0000213,0.0276842,0.9110827,0.0612119
0.1008313,0.6353635,0.0333259,0.2304793
0.0346788,0.5737640,0.0640945,0.3274628
0.0000006,0.0307373,0.9279382,0.0413239
0.0422121,0.6254894,0.0560230,0.2762755
0.0436193,0.6373241,0.0537879,0.2652687
0.0075862,0.4970227,0.1964964,0.2988946
0.0084262,0.8346862,0.0531371,0.1037506
0.8812135,0.0360613,0.0004909,0.0822343
0.0276111,0.6686881,0.0798719,0.2238289
0.0699271,0.6014913,0.0530292,0.2755524
0.0181587,0.3606681,0.1377509,0.4834223
0.0155465,0.8193156,0.0465843,0.1185537
0.0842342,0.3228420,0.0629239,0.5300000
0.0821511,0.4474871,0.0631001,0.4072616
0.0011526,0.8190263,0.0911598,0.0886614
0.0055513,0.8327396,0.0512570,0.1104522
0.0386767,0.7628942,0.0410252,0.1574039
0.9116877,0.0116840,0.0007535,0.0758747
0.0207277,0.3559282,0.0988385,0.5245056
0.9261643,0.0170963,0.0002208,0.0565186
0.0383510,0.4802446,0.0732903,0.4081141
0.0002720,0.6921290,0.2333070,0.0742921
0.0344161,0.6397532,0.0582468,0.2675838
0.0098292,0.8716812,0.0358056,0.0826839
0.0005549,0.7574009,0.1215558,0.1204882
0.0052707,0.8729615,0.0490812,0.0726867
0.0193885,0.1989633,0.1328897,0.6487585
0.0425080,0.6302505,0.0549771,0.2722644
0.0009666,0.4621413,0.3613509,0.1755411
0.0266606,0.5016225,0.0748858,0.3968311
0.0003477,0.7550132,0.1552347,0.0894044
0.0224311,0.7470477,0.0655348,0.1649865
0.0009548,0.6664127,0.2074055,0.1252271
0.9376658,0.0158225,0.0001983,0.0463133
0.0000008,0.0082374,0.9746025,0.0171593
0.0027977,0.8861997,0.0480958,0.0629067
0.0478306,0.6622390,0.0495022,0.2404281
0.0180627,0.8059275,0.0473428,0.1286671
0.3096158,0.0916569,0.0355769,0.5631505
0.0017892,0.8905095,0.0480390,0.0596622
0.0026866,0.7790256,0.0914833,0.1268044
0.0271741,0.7993119,0.0390937,0.1344203
0.1578774,0.6665381,0.0107818,0.1648027
0.0644023,0.5337345,0.0622651,0.3395981
0.0039253,0.0623848,0.3128311,0.6208588
0.0289264,0.6994408,0.0563403,0.2152925
0.0423143,0.6289949,0.0551870,0.2735036
0.0173312,0.1249267,0.1652007,0.6925414
0.0067541,0.1563915,0.2666245,0.5702300
0.0106815,0.8937454,0.0231530,0.0724202
0.8287233,0.0592652,0.0009651,0.1110463
0.0078758,0.1883582,0.2486012,0.5551648
0.0258881,0.7059013,0.0504118,0.2177988
0.0567470,0.6915738,0.0450878,0.2065914
0.0001541,0.8743432,0.0694939,0.0560087
0.0402984,0.7519093,0.0418786,0.1659139
0.5000736,0.2063600,0.0082278,0.2853386
0.0154094,0.8362659,0.0419480,0.1063766
0.0448153,0.6446982,0.0525356,0.2579508
0.0344894,0.7151915,0.0494989,0.2008202
0.0319947,0.3227451,0.1953807,0.4498795
0.0221458,0.4270464,0.1042489,0.4465588
0.0724492,0.7191840,0.0300025,0.1783642
0.0119141,0.8861055,0.0244627,0.0775178
0.0256238,0.5964341,0.0757618,0.3021803
0.0052530,0.6259878,0.0845124,0.2842469
0.1735472,0.3924505,0.0517754,0.3822270
0.0733289,0.3410953,0.0808916,0.5046843
0.0030026,0.8861631,0.0489811,0.0618532
0.0173753,0.5314631,0.1772349,0.2739268
0.0344181,0.7001041,0.0514387,0.2140391
0.0353989,0.4656827,0.0812280,0.4176904
0.0310428,0.5061154,0.0795640,0.3832777
0.0079845,0.7809190,0.0845716,0.1265249
0.0267101,0.4879860,0.0955703,0.3897336
0.0097306,0.8715816,0.0361002,0.0825876
0.1138102,0.5469664,0.0310354,0.3081879
0.0156880,0.6742871,0.0649941,0.2450308
0.0201899,0.7458108,0.0490532,0.1849460
0.0479923,0.6631392,0.0493444,0.2395241
0.0028762,0.8443137,0.0617944,0.0910157
0.0154896,0.8330100,0.0433389,0.1081614
0.0293108,0.4358612,0.0871709,0.4476571
0.0097264,0.8384209,0.0475001,0.1043527
0.0545129,0.1130403,0.0976484,0.7347985
0.0044103,0.8647261,0.0501822,0.0806814
0.0023209,0.9007189,0.0445634,0.0523968
0.0448849,0.6893147,0.0508487,0.2149517
0.0505429,0.7508482,0.0376286,0.1609803
0.0167033,0.4593149,0.1377861,0.3861957
0.0039555,0.0972866,0.4791764,0.4195814
0.0051675,0.8047035,0.0881658,0.1019631
0.0006759,0.8595278,0.0823849,0.0574114
0.0007313,0.9316733,0.0395787,0.0280166
0.0018203,0.9152536,0.0408320,0.0420940
0.0406357,0.3019190,0.0976598,0.5597854
0.0516082,0.2210172,0.1023166,0.6250581
0.1880352,0.5149044,0.0186949,0.2783655
0.0014317,0.8448462,0.0620578,0.0916644
0.0124126,0.2777174,0.1677762,0.5420938
0.0351934,0.5456176,0.0672224,0.3519665
0.0111361,0.1056385,0.1492909,0.7339345
0.0571206,0.1920666,0.0854270,0.6653857
0.0287535,0.5220616,0.0719183,0.3772666
0.0518876,0.5712066,0.0575067,0.3193992
0.0335216,0.7486253,0.0504660,0.1673871
0.0053114,0.8618848,0.0547128,0.0780910
0.0291738,0.7875090,0.0418185,0.1414986
0.1562725,0.2484865,0.0360246,0.5592164
0.0105457,0.0658935,0.1221546,0.8014061
0.0105264,0.8048186,0.0539829,0.1306720
0.6953878,0.1386189,0.0024986,0.1634949
0.0239465,0.1686069,0.1022640,0.7051827
0.0109479,0.8074602,0.0677936,0.1137982
0.0397599,0.6117964,0.0580273,0.2904165
0.0758889,0.6554815,0.0458914,0.2227383
0.0236692,0.4362965,0.0901441,0.4498902
0.0029212,0.9019260,0.0420556,0.0530971
0.3938055,0.1210121,0.0107323,0.4744503
0.0092918,0.8509834,0.0450349,0.0946899
0.0017057,0.2914112,0.4012186,0.3056643
0.0161990,0.8228639,0.0448183,0.1161186
0.0000245,0.0543117,0.8964536,0.0492102
0.2785316,0.4806074,0.0124190,0.2284420
0.0564565,0.6889248,0.0456765,0.2089423
0.0291036,0.6910880,0.0593058,0.2205026
0.0113953,0.4486618,0.1690937,0.3708491
0.0314857,0.5379067,0.0707298,0.3598778
0.0206630,0.6702090,0.0673645,0.2417635
0.0133823,0.2048623,0.1386134,0.6431419
0.0171301,0.1714516,0.2032463,0.6081720
0.0187312,0.3633716,0.1841027,0.4337945
0.0214871,0.3576117,0.1423308,0.4785704
0.0077592,0.8169981,0.0556742,0.1195686
0.0400257,0.6136429,0.0577254,0.2886060
0.0013990,0.9206631,0.0404954,0.0374425
0.0032085,0.3278117,0.4326749,0.2363049
0.0457286,0.0356252,0.0819956,0.8366507
0.0142935,0.1746785,0.1622601,0.6487678
0.0186514,0.6889073,0.0661975,0.2262436
0.3019584,0.5202383,0.0059661,0.1718371
0.1116904,0.1466954,0.0554883,0.6861259
0.0081620,0.1881705,0.2353028,0.5683647
0.0050807,0.8526367,0.0520436,0.0902388
0.0253214,0.7001895,0.0467835,0.2277055
0.0000004,0.0113746,0.9537818,0.0348432
0.0111962,0.3835723,0.2285057,0.3767258
0.0297722,0.5315751,0.0705133,0.3681394
0.0160171,0.1476859,0.2160713,0.6202255
0.0042489,0.1108252,0.3483173,0.5366086
0.0582336,0.4250819,0.0809786,0.4357059
0.0177326,0.7866579,0.0496777,0.1459318
0.0006745,0.8368653,0.0656602,0.0967999
0.2331554,0.4174479,0.0433947,0.3060021
0.0039266,0.8663566,0.0510211,0.0786959
0.0030412,0.8350120,0.0717114,0.0902354
0.1234531,0.6514849,0.0180090,0.2070531
0.0208603,0.3737919,0.1192597,0.4860880
0.8911567,0.0199757,0.0003597,0.0885078
0.0315352,0.3278289,0.0989811,0.5416548
0.0294293,0.1319271,0.1193804,0.7192631
0.0301071,0.7888194,0.0411147,0.1399588
0.7531537,0.1064471,0.0016397,0.1387594
0.0013258,0.8950188,0.0487631,0.0548924
0.0450163,0.5998224,0.0595627,0.2955985
0.0733968,0.7193343,0.0293773,0.1778916
0.3585983,0.3891861,0.0118500,0.2403657
0.0622309,0.6780980,0.0455630,0.2141080
0.9518111,0.0082227,0.0002411,0.0397249
0.0155502,0.7886544,0.0548045,0.1409908
0.0006814,0.8223751,0.0698858,0.1070577
0.0104120,0.2269883,0.2356176,0.5269821
0.0044323,0.8676055,0.0492496,0.0787126
0.0549566,0.6750693,0.0487683,0.2212058
0.0077463,0.1851523,0.2483343,0.5587671
0.1004565,0.6078233,0.0422727,0.2494475
0.0704652,0.2848718,0.1098880,0.5347751
0.0417706,0.5163497,0.0747296,0.3671501
0.0839404,0.5058454,0.0529567,0.3572575
0.0091949,0.0417036,0.1200792,0.8290223
0.0069903,0.6882869,0.1522481,0.1524747
0.0229965,0.4625845,0.0805023,0.4339167
0.0309975,0.4854254,0.0750556,0.4085215
0.7035341,0.1393919,0.0021852,0.1548885
0.0426183,0.0581614,0.1030950,0.7961253
0.0230887,0.4543396,0.0847439,0.4378278
0.0000039,0.0142603,0.9559400,0.0297957
0.0275207,0.4795106,0.0768766,0.4160922
0.0750926,0.5747254,0.0545933,0.2955887
0.0266452,0.7726348,0.0474473,0.1532728
0.0270124,0.5755156,0.0692986,0.3281733
0.0106042,0.8564778,0.0420718,0.0908462
0.4869356,0.2453600,0.0249343,0.2427700
0.0433251,0.2054812,0.1329597,0.6182341
0.0433739,0.6327990,0.0602042,0.2636228
0.0116688,0.1288243,0.1635887,0.6959182
0.0313029,0.7768345,0.0424021,0.1494605
0.0030967,0.7660966,0.0630028,0.1678039
0.0357013,0.4546959,0.0811546,0.4284482
0.0079878,0.8304380,0.0557887,0.1057855
0.0041121,0.8938988,0.0416795,0.0603094
0.0385231,0.6030241,0.0594520,0.2990009
0.0000113,0.0306308,0.9040238,0.0653341
0.6724626,0.1749888,0.0020940,0.1504547
0.1259131,0.1848916,0.0781925,0.6110029
0.0014585,0.9198478,0.0405502,0.0381434
0.0674797,0.6842225,0.0436516,0.2046461
0.0045112,0.8909335,0.0417517,0.0628035
0.0189426,0.6438905,0.1021430,0.2350238
0.0001537,0.0737039,0.8287950,0.0973475
0.0078759,0.8526763,0.0466418,0.0928058
0.0006462,0.6316507,0.1151778,0.2525252
0.0381186,0.7889637,0.0321719,0.1407458
0.0063793,0.7757974,0.0682516,0.1495717
0.0108995,0.2244008,0.3098471,0.4548525
0.0553598,0.2249355,0.1642874,0.5554174
0.0180654,0.2475955,0.1688225,0.5655167
0.0160994,0.7382066,0.0596213,0.1860727
0.7823769,0.0913356,0.0012699,0.1250175
0.0381186,0.7402783,0.0444236,0.1771794
0.0255578,0.4685360,0.1109225,0.3949835
0.0110088,0.1704924,0.3027848,0.5157141
0.2477095,0.2639934,0.0236786,0.4646184
0.0064469,0.8782248,0.0419689,0.0733592
0.0618886,0.3116618,0.0786888,0.5477608
0.0135059,0.2970816,0.1858767,0.5035359
0.0019441,0.1790297,0.5538741,0.2651522
0.0100163,0.2207162,0.2880484,0.4812191
0.7535883,0.0964238,0.0019169,0.1480709
0.0005545,0.8245747,0.0949342,0.0799366
0.0257944,0.5835904,0.0886149,0.3020002
0.5796259,0.0679517,0.0043820,0.3480405
0.0456013,0.7281899,0.0441484,0.1820604
0.0424532,0.6298957,0.0550365,0.2726147
0.0300908,0.6227657,0.0628040,0.2843394
0.0642532,0.3541217,0.0956105,0.4860145
0.0014299,0.9158084,0.0424596,0.0403022
0.0000001,0.0029092,0.9845113,0.0125794
0.8698848,0.0443104,0.0005265,0.0852783
0.0109189,0.8068489,0.0530087,0.1292234
0.0350040,0.5763616,0.0636889,0.3249455
0.0120183,0.6757526,0.1333436,0.1788855
0.0578026,0.5402725,0.0640035,0.3379214
0.0063920,0.5928330,0.0906890,0.3100859
0.0150151,0.1524230,0.1251961,0.7073658
0.0014590,0.8465890,0.0629567,0.0889952
0.0851233,0.4788062,0.0509774,0.3850931
0.0352186,0.5780625,0.0634226,0.3232962
0.0318496,0.5236134,0.0752763,0.3692607
0.0151837,0.3171171,0.2556930,0.4120062
0.1838878,0.1433751,0.0631652,0.6095718
0.0177524,0.8275607,0.0418449,0.1128418
0.0238393,0.1524655,0.1049100,0.7187851
0.0032258,0.5384991,0.2159910,0.2422841
0.0618056,0.2052410,0.0843261,0.6486273
0.0085487,0.8665402,0.0420600,0.0828511
0.7083244,0.1452782,0.0018501,0.1445471
0.0526305,0.6872814,0.0450226,0.2150655
0.0297987,0.7453574,0.0482655,0.1765784
0.0787838,0.3913101,0.0717955,0.4581107
0.0081011,0.7814023,0.0643425,0.1461540
0.0456124,0.6494793,0.0517166,0.2531916
0.0282560,0.7211272,0.0556650,0.1949517
0.0173863,0.3088509,0.1549626,0.5188003
0.0227582,0.7000881,0.0860902,0.1910636
0.0542010,0.6719539,0.0484002,0.2254449
0.0063518,0.1919702,0.1847665,0.6169114
0.0297398,0.4902840,0.0822703,0.3977060
0.0117425,0.8245487,0.0481414,0.1155675
0.0163205,0.7220069,0.0540750,0.2075975
0.0577655,0.7907388,0.0178606,0.1336350
0.0348653,0.3303510,0.0916521,0.5431316
0.0456160,0.5347089,0.0655886,0.3540865
0.6328157,0.2182847,0.0020645,0.1468353
0.0820971,0.3690945,0.0562567,0.4925517
0.0290836,0.3006316,0.1525651,0.5177197
0.0260107,0.6785372,0.0572125,0.2382396
0.0200134,0.6840422,0.0674316,0.2285127
0.0163908,0.0563745,0.2581161,0.6691186
0.0096404,0.8227645,0.0604581,0.1071370
0.0427375,0.5498691,0.0646385,0.3427549
0.0197057,0.1811923,0.1942629,0.6048390
0.0573860,0.7240070,0.0392169,0.1793901
0.0427118,0.5271920,0.0671677,0.3629284
0.0033816,0.0626089,0.3502568,0.5837528
0.0111514,0.7044719,0.0940449,0.1903318
0.0254392,0.4558122,0.1323279,0.3864209
0.9202160,0.0215584,0.0003830,0.0578425
0.0050080,0.6804323,0.1481945,0.1663651
0.0001462,0.8490936,0.0947054,0.0560547
0.0056764,0.8100595,0.0658584,0.1184056
0.0730316,0.7114896,0.0363354,0.1791434
0.0154046,0.7905713,0.0536798,0.1403444
0.0092567,0.8473096,0.0472692,0.0961645
0.0144744,0.8290998,0.0443058,0.1121199
0.0044466,0.8746789,0.0295776,0.0912970
0.0592555,0.6790266,0.0391205,0.2225973
0.0032327,0.8823020,0.0479625,0.0665026
0.0054824,0.8004862,0.0956212,0.0984102
0.0578883,0.2952197,0.0945033,0.5523887
0.0208843,0.6316207,0.1009881,0.2465068
0.0046938,0.1112157,0.4675959,0.4164946
0.0151242,0.7503512,0.0619366,0.1725881
0.0206297,0.4690375,0.1808460,0.3294867
0.0073394,0.8730522,0.0420205,0.0775877
0.0029393,0.9036524,0.0413723,0.0520361
0.7642238,0.0788068,0.0021370,0.1548324
0.0777249,0.6025482,0.0471841,0.2725427
0.0003304,0.6869221,0.1978632,0.1148842
0.0794618,0.4835515,0.0670763,0.3699104
0.0315251,0.7849060,0.0410207,0.1425481
0.1689745,0.4650891,0.0502094,0.3157270
0.6032540,0.1269851,0.0065782,0.2631828
0.0798158,0.6761557,0.0411040,0.2029244
0.8874474,0.0324276,0.0007114,0.0794136
0.0351961,0.6699221,0.0550337,0.2398480
0.0001391,0.2323148,0.6404855,0.1270607
0.0116442,0.2497424,0.3446534,0.3939601
0.0718356,0.6809670,0.0419137,0.2052837
0.0215808,0.1015042,0.1905283,0.6863866
0.0362251,0.7589003,0.0432780,0.1615967
0.2888064,0.2062883,0.0179008,0.4870045
0.8184113,0.0618480,0.0017851,0.1179557
0.5247290,0.2125502,0.0047553,0.2579653
0.0136257,0.1767712,0.2783633,0.5312398
0.0430078,0.3642175,0.0840423,0.5087326
0.0461934,0.6528978,0.0511275,0.2497813
0.0081387,0.0569083,0.1205378,0.8144153
0.0061060,0.7270311,0.0794828,0.1873799
0.0270883,0.2894980,0.1849127,0.4985009
0.0025640,0.8764164,0.0524489,0.0685706
0.8940130,0.0420658,0.0004194,0.0635017
0.0602614,0.3261676,0.0801754,0.5333956
0.0163935,0.3084298,0.1880148,0.4871620
0.0232412,0.7323209,0.0692063,0.1752317
0.0311435,0.5439562,0.0686618,0.3562385
0.0000000,0.0069929,0.9788041,0.0142028
0.0578788,0.7017849,0.0428258,0.1975104
0.0099515,0.0882713,0.1602084,0.7415687
0.0314673,0.4480103,0.0835835,0.4369389
0.0490245,0.6687871,0.0483488,0.2338395
0.0255570,0.7760637,0.0507949,0.1475845
0.0387625,0.2088457,0.1249771,0.6274146
0.0598314,0.7189720,0.0390442,0.1821523
0.0025400,0.8185712,0.0651998,0.1136891
0.9599026,0.0047409,0.0002004,0.0351561
0.0028043,0.3447693,0.3969021,0.2555243
0.0223863,0.7740528,0.0553259,0.1482349
0.0263291,0.6981512,0.0808813,0.1946385
0.0010720,0.9255472,0.0401323,0.0332485
0.0134542,0.8264250,0.0472340,0.1128869
0.0123897,0.8299513,0.0462237,0.1114354
0.0146027,0.1732802,0.2178414,0.5942757
0.0053830,0.8498235,0.0609356,0.0838578
0.0130150,0.8575520,0.0360172,0.0934159
0.0217977,0.1208374,0.1057122,0.7516528
0.0348927,0.6687154,0.0577780,0.2386139
0.0161357,0.7566944,0.0492698,0.1779002
0.0061924,0.8586144,0.0503677,0.0848253
0.9140007,0.0265844,0.0002352,0.0591797
0.0467063,0.5042790,0.0847410,0.3642737
0.1008771,0.6941209,0.0320167,0.1729852
0.9682525,0.0071376,0.0001014,0.0245086
0.2143861,0.5791848,0.0113971,0.1950319
0.0189928,0.6549738,0.0761110,0.2499223
0.0667838,0.7149752,0.0282077,0.1900333
0.0025173,0.9076778,0.0412092,0.0485956
0.0535852,0.1613913,0.0941947,0.6908287
0.2967028,0.5169894,0.0067165,0.1795913
0.0000806,0.0473161,0.8209815,0.1316218
0.0545074,0.7199935,0.0422457,0.1832533
0.0103547,0.2300318,0.2204885,0.5391250
0.0162401,0.1716339,0.2281491,0.5839769
0.1450933,0.4663301,0.0210076,0.3675690
0.0324136,0.7504498,0.0341141,0.1830226
0.0277862,0.5127679,0.0732762,0.3861696
0.0060264,0.8807926,0.0419359,0.0712451
0.0089411,0.8310115,0.0535990,0.1064484
0.2478620,0.2753431,0.0201035,0.4566915
0.6441928,0.1777979,0.0023394,0.1756698
0.0030420,0.8766866,0.0477267,0.0725447
0.0180629,0.7860481,0.0495023,0.1463867
0.0450114,0.6458843,0.0523330,0.2567713
0.0011512,0.9242926,0.0402315,0.0343246
0.0067245,0.6669483,0.1380131,0.1883142
0.0080633,0.0672135,0.2757623,0.6489609
0.0488177,0.5772304,0.0654650,0.3084869
0.0223076,0.2059825,0.2071168,0.5645931
0.0561045,0.4686785,0.0690179,0.4061991
0.9190855,0.0187086,0.0002701,0.0619357
0.0424999,0.1791023,0.1213006,0.6570971
0.3315950,0.1449688,0.0553115,0.4681246
0.1690630,0.1176462,0.0339244,0.6793664
0.0487428,0.6740819,0.0522853,0.2248899
0.9651111,0.0102881,0.0001169,0.0244838
0.0000011,0.0091712,0.9572645,0.0335632
0.1681855,0.1442649,0.0454801,0.6420696
0.0068304,0.1715509,0.2172697,0.6043490
0.0465528,0.2126528,0.0970887,0.6437058
0.0710103,0.4197303,0.1129983,0.3962612
0.0123025,0.0790492,0.1227936,0.7858546
0.0020897,0.8030915,0.0893364,0.1054825
0.0261378,0.4963208,0.0756442,0.4018972
0.0039361,0.8952565,0.0416434,0.0591641
0.0437386,0.4906039,0.0707485,0.3949089
0.0000000,0.0037810,0.9886100,0.0076090
0.1715961,0.2213643,0.0307649,0.5762749
0.0091327,0.7714352,0.0632032,0.1562289
0.1304018,0.6418450,0.0334450,0.1943082
0.0210449,0.8162263,0.0416735,0.1210553
0.0570614,0.6636982,0.0405107,0.2387296
0.0512420,0.6145283,0.0533531,0.2808766
0.0283047,0.5177814,0.0725455,0.3813685
0.0120755,0.0869568,0.1222349,0.7787328
0.0077413,0.8430383,0.0517655,0.0974548
0.0028259,0.0798550,0.4757291,0.4415900
0.0596173,0.7171144,0.0394513,0.1838170
0.0464956,0.5771171,0.0605280,0.3158593
0.4506589,0.3258145,0.0056671,0.2178595
0.0906135,0.6205954,0.0324024,0.2563888
0.0005989,0.7693391,0.0781902,0.1518717
0.0612214,0.6395086,0.0495147,0.2497554
0.1958621,0.5379228,0.0127760,0.2534391
0.0107880,0.1790780,0.2318872,0.5782468
0.0000006,0.0139186,0.9496951,0.0363857
0.0058475,0.8819133,0.0419199,0.0703193
0.3556491,0.4048164,0.0256573,0.2138771
0.0288919,0.3115784,0.0899311,0.5695987
0.0143702,0.4595194,0.2430250,0.2830854
0.0105868,0.7506964,0.0817227,0.1569941
0.0137536,0.0343010,0.1761621,0.7757834
0.0293216,0.4171830,0.0897551,0.4637402
0.0225965,0.4419760,0.0981389,0.4372885
0.0189857,0.5176861,0.1167956,0.3465327
0.0644409,0.6384158,0.0485679,0.2485754
0.0430863,0.5788081,0.0611873,0.3169182
0.0273293,0.4593292,0.1251898,0.3881518
0.0215934,0.8496104,0.0262311,0.1025651
0.0104092,0.1784230,0.1685213,0.6426464
0.6712329,0.2007965,0.0014037,0.1265669
0.0288046,0.4749294,0.0809996,0.4152662
0.0495863,0.1296587,0.1040455,0.7167095
0.0360796,0.5719500,0.0648472,0.3271232
0.0981204,0.4337386,0.0647135,0.4034275
0.0254301,0.4654726,0.0954656,0.4136316
0.0223629,0.4555086,0.0813286,0.4407999
0.0307142,0.6119266,0.0633006,0.2940587
0.1208599,0.5086802,0.0312611,0.3391990
0.0112995,0.7562775,0.0771701,0.1552528
0.0013251,0.8278714,0.0611287,0.1096746
0.0128196,0.7256233,0.0774770,0.1840802
0.0071969,0.8575443,0.0464569,0.0888018
0.1435736,0.6753028,0.0123572,0.1687664
0.0222294,0.8499769,0.0253359,0.1024579
0.0122435,0.8326575,0.0457853,0.1093137
0.1884169,0.2760617,0.0630124,0.4725089
0.0165085,0.8321068,0.0419021,0.1094825
0.3138161,0.1319558,0.0351492,0.5190789
0.3870967,0.1315925,0.0442226,0.4370883
0.0360070,0.7164366,0.0485663,0.1989901
0.0334284,0.7968376,0.0384119,0.1313220
0.0821520,0.6021454,0.0360434,0.2796591
0.0439981,0.2502483,0.0877559,0.6179975
0.0300766,0.4873296,0.1325100,0.3500838
0.0069118,0.7780372,0.0833884,0.1316625
0.0000096,0.0243027,0.8987532,0.0769343
0.1300566,0.2774568,0.0663600,0.5261267
0.0617122,0.5701483,0.0470817,0.3210577
0.0180718,0.2173463,0.1969372,0.5676446
0.0435894,0.0558976,0.1023630,0.7981500
0.0432705,0.4626819,0.0736293,0.4204182
0.0611970,0.6786243,0.0448022,0.2153766
0.0099248,0.0268546,0.1628955,0.8003250
0.0102604,0.0823449,0.1293707,0.7780240
0.0002103,0.7992942,0.1260349,0.0744605
0.0097566,0.6398520,0.1554440,0.1949473
0.0176946,0.8277685,0.0418477,0.1126891
0.0128432,0.5406696,0.1645624,0.2819247
0.0219080,0.7369494,0.0779194,0.1632231
0.0022002,0.0474973,0.4289299,0.5213726
0.0524255,0.2552440,0.1251780,0.5671526
0.0000002,0.0066678,0.9747417,0.0185903
0.0424623,0.5619173,0.0684993,0.3271211
0.0215282,0.6168973,0.1086196,0.2529550
0.0131543,0.3326305,0.0967274,0.5574877
0.0120172,0.1634034,0.1692775,0.6553019
0.8522568,0.0377896,0.0013849,0.1085686
0.0178157,0.8273337,0.0418419,0.1130087
0.0480673,0.4835868,0.0703337,0.3980122
0.0161651,0.7880167,0.0545028,0.1413153
0.0403763,0.7395502,0.0330198,0.1870535
0.1083585,0.6177778,0.0332675,0.2405962
0.0239417,0.7723639,0.0513335,0.1523608
0.0165219,0.3658773,0.1257815,0.4918191
0.0368549,0.5907078,0.0614262,0.3110111
0.1017295,0.7509792,0.0097466,0.1375448
0.0204805,0.4255682,0.1445612,0.4093902
0.0208297,0.1841998,0.1935313,0.6014392
0.0004933,0.7062615,0.1892752,0.1039699
0.0438919,0.5962850,0.0588783,0.3009449
0.8932649,0.0352805,0.0010924,0.0703621
0.0368132,0.7709879,0.0406619,0.1515369
0.0072566,0.7326317,0.1203301,0.1397815
0.0155723,0.8356403,0.0419415,0.1068458
0.0082083,0.8606818,0.0440662,0.0870437
0.0339060,0.7785155,0.0408606,0.1467179
0.0121395,0.7914149,0.0546113,0.1418343
0.0443782,0.5327152,0.1181913,0.3047153
0.0087408,0.6837334,0.0683411,0.2391846
0.0128660,0.2363524,0.2701409,0.4806406
0.1319143,0.6835714,0.0141341,0.1703800
0.0421231,0.5557362,0.0641313,0.3380091
0.0260532,0.6506158,0.0626094,0.2607216
0.0310889,0.6931411,0.0541776,0.2215924
0.0714966,0.7304837,0.0347289,0.1632909
0.7866718,0.0923424,0.0011472,0.1198386
0.0000001,0.0102929,0.9667754,0.0229315
0.0755846,0.3774166,0.0653854,0.4816135
0.9371463,0.0176576,0.0001311,0.0450649
0.1401464,0.0272524,0.0183988,0.8142025
0.0354942,0.7573870,0.0443254,0.1627934
0.0094300,0.8285785,0.0507452,0.1112463
0.0509868,0.7328980,0.0402692,0.1758461
0.0476929,0.5780623,0.0601228,0.3141219
0.0033956,0.7857418,0.0596806,0.1511821
0.0006749,0.6761692,0.1019663,0.2211896
0.0036477,0.6678997,0.0697017,0.2587508
0.7415107,0.0767360,0.0049377,0.1768157
0.0207369,0.8695316,0.0196056,0.0901260
0.0294658,0.5287425,0.0709332,0.3708586
0.0002351,0.6463712,0.2517827,0.1016110
0.0065814,0.8270599,0.0555254,0.1108334
0.6319668,0.2347928,0.0064297,0.1268108
0.0043738,0.0774869,0.2772884,0.6408510
0.4129233,0.1742093,0.0108689,0.4019983
0.0385494,0.6032140,0.0594213,0.2988153
0.0294478,0.7343403,0.0419754,0.1942364
0.0230407,0.4449083,0.0860249,0.4460261
0.0043426,0.8698683,0.0487873,0.0770018
0.0516228,0.4351203,0.0717901,0.4414667
0.0772538,0.1928105,0.1258203,0.6041154
0.0149247,0.7518631,0.0586322,0.1745800
0.0694484,0.5817259,0.0522096,0.2966162
0.0293679,0.4349180,0.0881164,0.4475977
0.0598314,0.7189720,0.0390442,0.1821523
0.0417355,0.5870026,0.0660615,0.3052005
0.0206204,0.4350331,0.0840773,0.4602692
0.0098123,0.7956553,0.0569999,0.1375324
0.0139804,0.8418989,0.0419999,0.1021209
0.0346674,0.5669010,0.0676363,0.3307954
0.0033576,0.8999650,0.0415020,0.0551754
0.0303518,0.4832686,0.1042239,0.3821556
0.0146768,0.7291360,0.0788522,0.1773349
0.0109122,0.0404613,0.3220253,0.6266011
0.0250401,0.8027961,0.0415230,0.1306408
0.0384542,0.6915079,0.0504240,0.2196139
0.0257061,0.8258345,0.0309078,0.1175515
0.0167240,0.3232934,0.1637204,0.4962621
0.9406836,0.0142630,0.0001740,0.0448794
0.0028425,0.6702831,0.0837610,0.2431135
0.0148639,0.7340218,0.0709822,0.1801322
0.0198708,0.7258623,0.0647164,0.1895506
0.8143275,0.0606358,0.0031392,0.1218976
0.0381772,0.0333506,0.0931143,0.8353579
0.0102390,0.2186072,0.1941743,0.5769795
0.0178136,0.3147824,0.2143124,0.4530915
0.0099420,0.3024938,0.3038591,0.3837051
0.0102447,0.5712249,0.1534564,0.2650741
0.0146743,0.8668447,0.0285514,0.0899297
0.0283225,0.6890399,0.0618859,0.2207516
0.0405048,0.4598720,0.0804946,0.4191285
0.0457453,0.6669804,0.0482424,0.2390319
0.0567725,0.6954781,0.0476334,0.2001160
0.0160726,0.6978230,0.0580144,0.2280900
0.0111768,0.8627682,0.0348075,0.0912474
0.0642215,0.2477254,0.0818435,0.6062095
0.0224026,0.7477452,0.0650817,0.1647704
0.0287507,0.6262459,0.0632439,0.2817594
0.0059801,0.8810806,0.0419319,0.0710074
0.0055989,0.4493165,0.2995091,0.2455755
0.0344882,0.5564188,0.0836945,0.3253987
0.0604229,0.4968454,0.0660946,0.3766372
0.0327407,0.7399070,0.0437055,0.1836468
0.0236157,0.8444568,0.0258780,0.1060494
0.0710179,0.3963821,0.0785092,0.4540908
0.0112913,0.4452272,0.1748509,0.3686306
0.0090322,0.8232820,0.0587358,0.1089499
0.0051553,0.2764431,0.4244639,0.2939378
0.0018448,0.7908715,0.0845275,0.1227562
0.0475748,0.5947067,0.0634043,0.2943142
0.0041400,0.8936869,0.0416850,0.0604882
0.0000014,0.0266709,0.9279150,0.0454126
0.4881687,0.2202088,0.0072149,0.2844077
0.1983149,0.5229703,0.0195944,0.2591204
0.0053298,0.8852628,0.0418658,0.0675416
0.0337701,0.4943409,0.0732374,0.3986514
0.0139817,0.8294731,0.0446951,0.1118499
0.1101479,0.5712467,0.0487229,0.2698824
0.0196765,0.3767808,0.1460775,0.4574651
0.0088859,0.8648106,0.0420661,0.0842375
0.0320178,0.5445704,0.0683130,0.3550988
0.1068048,0.5641406,0.0500323,0.2790222
0.0087980,0.1859627,0.1789595,0.6262798
0.0860325,0.5378777,0.0567189,0.3193708
0.0109239,0.7575486,0.0629203,0.1686072
0.2092558,0.3712261,0.0529134,0.3666047
0.1601461,0.5002241,0.0420723,0.2975575
0.0094722,0.0725598,0.4460169,0.4719512
0.9816865,0.0046071,0.0000361,0.0136702
0.0248506,0.3407805,0.0970911,0.5372778
0.0207291,0.2224373,0.2270894,0.5297440
0.6872571,0.1809100,0.0014792,0.1303538
0.0134439,0.3041118,0.1531899,0.5292543
0.0036685,0.8613243,0.0603777,0.0746295
0.0032002,0.8898852,0.0454696,0.0614449
0.8383304,0.0463199,0.0008608,0.1144888
0.0047266,0.5233692,0.2260012,0.2459029
0.8953806,0.0314335,0.0005022,0.0726835
0.0004535,0.6715448,0.2343832,0.0936184
0.0507532,0.6778882,0.0467251,0.2246335
0.0429746,0.6332467,0.0544748,0.2693039
0.8893644,0.0381969,0.0008026,0.0716361
0.0455291,0.6489844,0.0518017,0.2536849
0.0803507,0.5274146,0.0588376,0.3333971
0.0465570,0.5785502,0.0603435,0.3145493
0.0123493,0.8768408,0.0279455,0.0828646
0.0275509,0.5098247,0.0896508,0.3729735
0.0170961,0.1709884,0.1089780,0.7029373
0.0229994,0.4554250,0.1326402,0.3889353
0.0197166,0.2303106,0.1171955,0.6327772
0.0189911,0.7189797,0.0878562,0.1741730
0.0096780,0.2045435,0.3149725,0.4708060
0.0060973,0.0932168,0.3041516,0.5965343
0.0426327,0.4887670,0.0712317,0.3973685
0.4877242,0.2336376,0.0232063,0.2554320
0.0330948,0.6685900,0.0580825,0.2402327
0.8236406,0.0526563,0.0010216,0.1226814
0.0103291,0.8577629,0.0420733,0.0898347
0.0263464,0.4984453,0.0753409,0.3998675
0.0000609,0.8218468,0.0934380,0.0846543
0.0367447,0.5872834,0.0618739,0.3140981
0.0070219,0.8559574,0.0471768,0.0898440
0.0074079,0.7982958,0.0761676,0.1181288
0.0596100,0.3991967,0.0751798,0.4660136
0.0456960,0.4650632,0.0727553,0.4164856
0.0261836,0.4933545,0.0804061,0.4000557
0.0368779,0.7486357,0.0426850,0.1718014
0.0442780,0.6414155,0.0530947,0.2612118
0.0368113,0.5903777,0.0614787,0.3113323
0.0000017,0.0068086,0.9747922,0.0183975
0.0404324,0.4585055,0.0748145,0.4262476
0.0096664,0.2898740,0.3138393,0.3866203
0.0464759,0.2019364,0.1344853,0.6171024
0.0048378,0.8133955,0.0862010,0.0955657
0.0040742,0.8697593,0.0495386,0.0766278
0.0032254,0.1049971,0.4808540,0.4109235
0.0437571,0.7540430,0.0401787,0.1620212
0.0243156,0.7235923,0.0602584,0.1918335
0.0066691,0.7549919,0.0578484,0.1804905
0.0094953,0.8014279,0.0693946,0.1196822
0.0160600,0.0683536,0.1972347,0.7183517
0.8503803,0.0234986,0.0017827,0.1243383
0.0507863,0.7453939,0.0235773,0.1802424
0.9742767,0.0045067,0.0000819,0.0211346
0.0175859,0.7697467,0.0668556,0.1458119
0.0626989,0.2040333,0.0841438,0.6491240
0.0341713,0.4210983,0.0801199,0.4646104
0.0026935,0.9059550,0.0412819,0.0500696
0.0903637,0.4689291,0.0653537,0.3753535
0.4730704,0.0422041,0.0211865,0.4635389
0.1733689,0.4922144,0.0454281,0.2889885
0.0045595,0.8744952,0.0468217,0.0741236
0.0058041,0.1396447,0.3108235,0.5437278
0.7928650,0.0870286,0.0011274,0.1189789
0.0112632,0.2076037,0.2037479,0.5773850
0.0360302,0.7729874,0.0407157,0.1502666
0.0418999,0.5672679,0.0645991,0.3262332
0.0000006,0.0073910,0.9573472,0.0352613
0.8324158,0.0602783,0.0012331,0.1060727
0.0134406,0.3362513,0.0981039,0.5522041
0.0417819,0.6255093,0.0557679,0.2769409
0.3951893,0.4408438,0.0038635,0.1601034
0.5410556,0.2791674,0.0035747,0.1762022
0.0195433,0.1150969,0.1391615,0.7261981
0.0000041,0.0509280,0.9204733,0.0285945
0.0085419,0.8323578,0.0532579,0.1058424
0.0511532,0.6799314,0.0463572,0.2225582
0.0208073,0.4904118,0.0813323,0.4074487
0.0096332,0.2202110,0.2154217,0.5547341
0.0297415,0.5254745,0.0781019,0.3666821
0.0268984,0.6748745,0.0591449,0.2390822
0.0076932,0.8511680,0.0473206,0.0938183
0.0702249,0.5968441,0.0443415,0.2885894
0.0000029,0.0111656,0.9632697,0.0255619
0.1331978,0.0975660,0.0429941,0.7262422
0.9241863,0.0224315,0.0003189,0.0530632
0.0072181,0.8335171,0.0526407,0.1066241
0.0598314,0.7189720,0.0390442,0.1821523
0.0609224,0.6435714,0.0521619,0.2433444
0.0032370,0.8406019,0.0613900,0.0947711
0.8862304,0.0164119,0.0009942,0.0963636
0.0079838,0.1621993,0.2331226,0.5966944
0.0279685,0.7902088,0.0420318,0.1397909
0.1113481,0.3783015,0.0427625,0.4675878
0.0200532,0.4044564,0.1305695,0.4449209
0.0012030,0.8500112,0.0599680,0.0888179
0.0601994,0.4709766,0.0667658,0.4020581
0.4509807,0.2897969,0.0093952,0.2498272
0.0846782,0.7158583,0.0211933,0.1782701
0.6111727,0.1389387,0.0059251,0.2439634
0.9798118,0.0030387,0.0000641,0.0170854
0.0969501,0.5057256,0.0623613,0.3349631
0.0205548,0.0680395,0.1098775,0.8015282
0.0271957,0.7664087,0.0466990,0.1596966
0.0078458,0.7536056,0.0493223,0.1892263
0.0084388,0.8671118,0.0420576,0.0823919
0.4797653,0.2525566,0.0137979,0.2538802
0.0183215,0.4645324,0.1621976,0.3549485
0.0332964,0.5638710,0.0705239,0.3323087
0.0198800,0.8201309,0.0417370,0.1182520
0.0282237,0.7420033,0.0454844,0.1842887
0.1167765,0.5281265,0.0533903,0.3017066
0.0651943,0.6354147,0.0498151,0.2495760
0.0244242,0.7615008,0.0575629,0.1565123
0.1622029,0.0616021,0.0785198,0.6976751
0.0128866,0.7803499,0.0558515,0.1509120
0.0316749,0.5486275,0.0679563,0.3517412
0.0453392,0.6478522,0.0519960,0.2548126
0.3895801,0.4220589,0.0053173,0.1830437
0.0113366,0.8094283,0.0528009,0.1264341
0.0022015,0.8984226,0.0459170,0.0534589
0.0180360,0.8150786,0.0440922,0.1227932
0.0074205,0.1665602,0.1813907,0.6446287
0.0062273,0.7273308,0.0636815,0.2027603
0.0467590,0.6561733,0.0505602,0.2465073
0.0250333,0.4848501,0.0772695,0.4128471
0.0195995,0.4658177,0.2047856,0.3097972
0.9515325,0.0127296,0.0001426,0.0355953
0.0279683,0.5145366,0.0730189,0.3844764
0.0365662,0.4157849,0.0876881,0.4599606
0.0055058,0.1331565,0.3401129,0.5212247
0.0299987,0.0232870,0.0685980,0.8781164
0.0000300,0.3959706,0.5157416,0.0882577
0.0167955,0.6365077,0.1157151,0.2309819
0.0281077,0.6149904,0.0648350,0.2920666
0.0518174,0.2354768,0.0861228,0.6265830
0.0583624,0.4047556,0.0750149,0.4618669
0.0289633,0.3533984,0.0954168,0.5222215
0.0384959,0.7692441,0.0384987,0.1537613
0.0585628,0.7078680,0.0414837,0.1920855
0.0204458,0.4954678,0.1805715,0.3035149
0.0178621,0.3247467,0.2334050,0.4239863
0.0560296,0.7547069,0.0290066,0.1602569
0.0396170,0.2531199,0.0889284,0.6183347
0.0008179,0.2493870,0.5744683,0.1753267
0.0127055,0.6932318,0.0943368,0.1997259
0.1146593,0.2481890,0.0515630,0.5855887
0.0082602,0.8304620,0.0525417,0.1087360
0.0322476,0.7138303,0.0519832,0.2019389
0.0212254,0.5814980,0.0922041,0.3050725
0.0163512,0.7281550,0.0933688,0.1621249
0.0150977,0.7779384,0.0481892,0.1587746
0.0305114,0.4463773,0.0854152,0.4376959
0.9539523,0.0083703,0.0000883,0.0375892
0.0000318,0.0400090,0.9047899,0.0551693
0.6742303,0.1646273,0.0023714,0.1587709
0.0264718,0.7506441,0.0584378,0.1644463
0.0432921,0.5847051,0.0677974,0.3042055
0.0033050,0.8492509,0.0563471,0.0910971
0.0104206,0.8147080,0.0519804,0.1228909
0.0311527,0.7721266,0.0432081,0.1535127
0.0156405,0.3649748,0.1022900,0.5170948
0.0186170,0.3368573,0.1168742,0.5276515
0.0230346,0.6310962,0.0672717,0.2785975
0.6448371,0.1816162,0.0024705,0.1710762
0.0095286,0.8616049,0.0420727,0.0867937
0.0227998,0.1678143,0.1844199,0.6249659
0.0674749,0.5773000,0.0529585,0.3022666
0.0263907,0.7513044,0.0491130,0.1731919
0.0534783,0.7322557,0.0394931,0.1747728
0.0108021,0.2339273,0.2470571,0.5082135
0.0224995,0.4446703,0.0937561,0.4390741
0.0329559,0.7161662,0.0501884,0.2006895
0.0702140,0.1434498,0.0901211,0.6962151
0.0041811,0.8115432,0.0931566,0.0911192
0.0051335,0.9113834,0.0272081,0.0562751
0.0110978,0.2311787,0.1399107,0.6178127
0.0116818,0.7522947,0.0731217,0.1629019
0.0822033,0.2441742,0.0854551,0.5881674
0.0467158,0.6559246,0.0506034,0.2467562
0.0366481,0.7750885,0.0391491,0.1491142
0.6563991,0.1556008,0.0036360,0.1843642
0.0044033,0.3544911,0.3652951,0.2758107
0.0400838,0.5736457,0.0686353,0.3176352
0.0122827,0.7859998,0.0610831,0.1406345
0.0640706,0.2677379,0.1203591,0.5478325
0.0284108,0.4786158,0.0845267,0.4084467
0.0142534,0.7762146,0.0652012,0.1443308
0.0423156,0.7080196,0.0443486,0.2053163
0.0063441,0.8503724,0.0499199,0.0933636
0.0328159,0.4779468,0.0752156,0.4140217
0.0208883,0.4021261,0.1268494,0.4501363
0.0639846,0.1015561,0.1871153,0.6473441
0.0014830,0.1330583,0.6220606,0.2433981
0.0093760,0.5318391,0.2166951,0.2420897
0.0275535,0.4566593,0.1286511,0.3871360
0.0061391,0.7529663,0.0596957,0.1811988
0.0105364,0.5317030,0.1961091,0.2616515
0.0258284,0.4522414,0.1458719,0.3760584
0.0585689,0.5665353,0.0705415,0.3043544
0.0247471,0.8044599,0.0414564,0.1293365
0.0245117,0.3571682,0.2033826,0.4149375
0.0167849,0.5713921,0.1296018,0.2822212
0.0120107,0.2500865,0.2938374,0.4440655
0.0177448,0.7142956,0.0802630,0.1876968
0.0147254,0.3040173,0.2119866,0.4692705
0.0152030,0.1507450,0.1826839,0.6513680
0.0332991,0.2861915,0.1287022,0.5518073
0.0109599,0.8548409,0.0420686,0.0921305
0.0000252,0.0360901,0.9142702,0.0496145
0.6504934,0.1509132,0.0025130,0.1960803
0.0124282,0.8491384,0.0416262,0.0968071
0.0297349,0.7898608,0.0411391,0.1392652
0.0001539,0.0257198,0.8051376,0.1689886
0.0046231,0.8477094,0.0573784,0.0902890
0.0031808,0.9014910,0.0414505,0.0538777
0.0677799,0.6391441,0.0367937,0.2562823
0.0135493,0.0581257,0.1732915,0.7550335
0.0041192,0.8483105,0.0559283,0.0916420
0.0065299,0.8777289,0.0419747,0.0737665
0.0000937,0.0710853,0.8463151,0.0825059
0.0000167,0.0435812,0.9141329,0.0422691
0.0060848,0.8642707,0.0465893,0.0830551
0.0306798,0.2791983,0.1058561,0.5842658
0.0212343,0.6490368,0.0895649,0.2401640
0.0109810,0.8524129,0.0426281,0.0939780
0.0000203,0.0505375,0.8978434,0.0515988
0.8651580,0.0497370,0.0010426,0.0840624
0.0076227,0.8421401,0.0497478,0.1004894
0.5394409,0.1776085,0.0085634,0.2743871
0.0590412,0.7120833,0.0405560,0.1883195
0.6991444,0.0600056,0.0021705,0.2386795
0.0320434,0.4884360,0.1373182,0.3422024
0.0810989,0.7066374,0.0349272,0.1773364
0.0306895,0.5399100,0.0692697,0.3601308
0.0128608,0.7793614,0.0560733,0.1517044
0.0644807,0.5318347,0.0656790,0.3380057
0.0076327,0.1180521,0.2077997,0.6665155
0.0116891,0.7542457,0.0535238,0.1805415
0.0398729,0.5987962,0.0729665,0.2883643
0.0111108,0.2272842,0.2650129,0.4965920
0.2170858,0.1450985,0.0252827,0.6125330
0.0401484,0.3262430,0.0926797,0.5409289
0.0302409,0.4078917,0.1297785,0.4320889
0.0036568,0.8871208,0.0450840,0.0641384
0.0125912,0.7552742,0.0609208,0.1712138
0.0090512,0.8619969,0.0431148,0.0858370
0.0111829,0.0601948,0.1173187,0.8113036
0.0124805,0.3417046,0.2457118,0.4001031
0.0309838,0.5312079,0.0720548,0.3657534
0.0003370,0.8771415,0.0687228,0.0537986
0.8259652,0.0869109,0.0008155,0.0863085
0.8850480,0.0677373,0.0003768,0.0468376
0.0214073,0.7391359,0.0617689,0.1776880
0.0000018,0.0126597,0.9660892,0.0212491
0.6054875,0.2397643,0.0023286,0.1524195
0.0154791,0.3371690,0.1421405,0.5052113
0.0193746,0.3786357,0.1610888,0.4409008
0.0091752,0.8095858,0.0598878,0.1213513
0.0197648,0.2254756,0.1228979,0.6318616
0.0003781,0.6126601,0.2601549,0.1268069
0.0508927,0.4264139,0.0751790,0.4475146
0.0005975,0.6665783,0.2001490,0.1326752
0.0215207,0.3890412,0.1870639,0.4023742
0.0016348,0.8496702,0.0559354,0.0927596
0.0087576,0.8232504,0.0562760,0.1117161
0.2542349,0.5100794,0.0288082,0.2068774
0.0042881,0.8824683,0.0449759,0.0682676
0.0398766,0.6126090,0.0578945,0.2896199
0.0033156,0.7609597,0.0612552,0.1744695
0.0027291,0.9145032,0.0353452,0.0474228
0.0282298,0.3553026,0.1327459,0.4837216
0.0053263,0.8915213,0.0380595,0.0650929
0.0485433,0.5037313,0.0870930,0.3606323
0.0233790,0.4494674,0.1086854,0.4184682
0.0066428,0.8827291,0.0386407,0.0719874
0.0133423,0.1440013,0.1286478,0.7140087
0.0320904,0.5354009,0.0721197,0.3603891
0.0542867,0.2297039,0.1315039,0.5845055
0.0068890,0.8073129,0.0615890,0.1242092
0.0119506,0.8824443,0.0260628,0.0795422
0.0164703,0.1662683,0.2316697,0.5855917
0.0155849,0.6835485,0.0685744,0.2322921
0.0181022,0.8848632,0.0168376,0.0801970
0.8132702,0.0890380,0.0006936,0.0969983
0.0070481,0.7242301,0.1254899,0.1432319
0.0398367,0.5277040,0.0746306,0.3578289
0.0391313,0.6073753,0.0587473,0.2947461
0.0439138,0.7290642,0.0449144,0.1821076
0.0479349,0.6737047,0.0507480,0.2276124
0.0103333,0.8577433,0.0420733,0.0898500
0.0124114,0.4669570,0.1872113,0.3334202
0.0894125,0.4539590,0.0676240,0.3890046
0.0102059,0.2132670,0.3218836,0.4546435
0.0549124,0.5599416,0.0605269,0.3246190
0.0874425,0.2769282,0.0774984,0.5581309
0.3675604,0.1458005,0.0126643,0.4739746
0.0218606,0.7674427,0.0314717,0.1792249
0.0226431,0.7901232,0.0453002,0.1419335
0.1097771,0.3979053,0.0648558,0.4274618
0.0286777,0.7928524,0.0412081,0.1372617
0.0355376,0.7872744,0.0329046,0.1442833
0.0165497,0.8007950,0.0490666,0.1335887
0.1043826,0.5571805,0.0524129,0.2860240
0.5001305,0.0594901,0.0063441,0.4340353
0.0040221,0.6962433,0.0713738,0.2283608
0.0081018,0.1878890,0.2457489,0.5582604
0.0251909,0.4865096,0.0770357,0.4112638
0.0196340,0.3720969,0.1263937,0.4818753
0.0846920,0.6654239,0.0240325,0.2258516
0.0962846,0.7294050,0.0161219,0.1581885
0.0633272,0.3375686,0.0691847,0.5299196
0.0396855,0.6703428,0.0560432,0.2339284
0.0000419,0.0736113,0.7826878,0.1436591
0.0229182,0.7656404,0.0587898,0.1526515
0.0019500,0.6863164,0.1603113,0.1514223
0.0311246,0.3957610,0.0832798,0.4898348
0.2097598,0.5994046,0.0096433,0.1811922
0.0360801,0.6128432,0.0599639,0.2911128
0.0317740,0.6642072,0.0636525,0.2403664
0.0040507,0.8870040,0.0440947,0.0648507
0.0062267,0.8560085,0.0486152,0.0891497
0.0115793,0.8042441,0.0568275,0.1273492
0.0278415,0.6296020,0.0971940,0.2453624
0.0111970,0.8534768,0.0421564,0.0931698
0.0367099,0.2844900,0.0885990,0.5902010
0.0101667,0.2185181,0.3760751,0.3952402
0.0000613,0.0690891,0.8018951,0.1289545
0.0133560,0.2825675,0.1354118,0.5686647
0.0126654,0.1743317,0.1641548,0.6488479
0.0100549,0.8165588,0.0520792,0.1213068
0.0010772,0.8603610,0.0594117,0.0791499
0.1744765,0.6015405,0.0163712,0.2076119
0.0293118,0.5273098,0.0711450,0.3722332
0.0156785,0.7496483,0.0581721,0.1765012
0.0232985,0.4819394,0.1441075,0.3506545
0.0214216,0.8149861,0.0416524,0.1219400
0.0558787,0.5152408,0.0616772,0.3672033
0.0167851,0.7764697,0.0555393,0.1512059
0.0088681,0.2111894,0.2662748,0.5136677
0.0398840,0.4622567,0.0746121,0.4232471
0.0055570,0.7545379,0.1249277,0.1149773
0.0238485,0.2262239,0.1758350,0.5740926
0.0130800,0.1075590,0.2523202,0.6270407
0.0418887,0.6262130,0.0556508,0.2762474
0.0213216,0.3472737,0.1068054,0.5245993
0.0170433,0.3787044,0.1113549,0.4928974
0.0000119,0.0275914,0.9372659,0.0351307
0.1368643,0.6829457,0.0122321,0.1679580
0.0310765,0.5139440,0.0720243,0.3829552
0.0169150,0.2283151,0.2289159,0.5258540
0.0203586,0.5253360,0.1347895,0.3195159
0.0569579,0.2439152,0.0780801,0.6210468
0.0147395,0.0291844,0.1470085,0.8090676
0.0351280,0.3027206,0.1160815,0.5460699
0.0729924,0.3560992,0.0755304,0.4953780
0.0241970,0.8061523,0.0414899,0.1281608
0.0205929,0.3820852,0.1968837,0.4004382
0.0073284,0.1734633,0.2529180,0.5662903
0.0155348,0.0143228,0.0664501,0.9036923
0.1427811,0.1531830,0.0805313,0.6235047
0.0512138,0.6228706,0.0531726,0.2727429
0.1552450,0.5063293,0.0302186,0.3082071
0.0000009,0.0157212,0.9382140,0.0460639
0.0076008,0.7264169,0.1121788,0.1538036
0.0207929,0.8138301,0.0425175,0.1228594
0.0016468,0.3819180,0.2839745,0.3324606
0.0192799,0.1028195,0.1278871,0.7500134
0.0029076,0.9039435,0.0413612,0.0517876
0.0030540,0.8088443,0.0806879,0.1074136
0.0038222,0.1016315,0.4896823,0.4048639
0.0000941,0.0551747,0.8614774,0.0832538
0.0732514,0.5688875,0.0569938,0.3008671
0.0058960,0.8779637,0.0430003,0.0731401
0.0026279,0.8646801,0.0562225,0.0764694
0.0200720,0.4662811,0.1400004,0.3736466
0.0157083,0.8253604,0.0446884,0.1142429
0.0133597,0.1351173,0.1666758,0.6848471
0.4778296,0.3598494,0.0040581,0.1582628
0.0278389,0.4942844,0.1509829,0.3268937
0.0107403,0.2534593,0.2389615,0.4968387
0.0067871,0.8853484,0.0366629,0.0712015
0.0089476,0.1999610,0.2622614,0.5288301
0.0419523,0.5610726,0.0635621,0.3334129
0.0132588,0.5472419,0.0867637,0.3527356
0.0036903,0.0721544,0.1251485,0.7990069
0.0081346,0.1846323,0.2707601,0.5364730
0.0127940,0.2878378,0.1946839,0.5046844
0.5077891,0.2820357,0.0049312,0.2052441
0.0886324,0.6870230,0.0355733,0.1887714
0.0166207,0.3834724,0.0906845,0.5092223
0.0310586,0.1724308,0.1204219,0.6760886
0.9633424,0.0034648,0.0001562,0.0330366
0.0354189,0.5071371,0.0749888,0.3824551
0.0021618,0.7835115,0.0639214,0.1504053
0.0474917,0.4414454,0.0744934,0.4365694
0.0155931,0.7907982,0.0536130,0.1399957
0.0249782,0.4679258,0.0823205,0.4247755
0.0270457,0.4560935,0.0868473,0.4300135
0.0387951,0.7660125,0.0405251,0.1546673
0.0055036,0.8602502,0.0510697,0.0831765
0.0307993,0.5561746,0.0713643,0.3416619
0.0000273,0.0235455,0.9170730,0.0593542
0.0065838,0.8774082,0.0419783,0.0740296
0.0086512,0.1975946,0.2298982,0.5638561
0.0421111,0.6276703,0.0554081,0.2748105
0.0039856,0.8751864,0.0480716,0.0727564
0.0070180,0.1774439,0.2343816,0.5811565
0.0425338,0.6304172,0.0549492,0.2720997
0.0055117,0.8692592,0.0462886,0.0789407
0.0679572,0.3732735,0.0753479,0.4834215
0.0259290,0.0645911,0.1477374,0.7617425
0.9583476,0.0091955,0.0001949,0.0322620
0.0044676,0.8832847,0.0442924,0.0679552
0.0359464,0.5739110,0.0738891,0.3162535
0.0098493,0.8348262,0.0523578,0.1029667
0.0454277,0.6460018,0.0541502,0.2544204
0.0001771,0.0490371,0.8247443,0.1260415
0.0243892,0.6487365,0.0774296,0.2494447
0.0000001,0.0026001,0.9811196,0.0162802
0.0020077,0.8548629,0.0556441,0.0874853
0.0048895,0.8882499,0.0418094,0.0650511
0.0477773,0.4975398,0.0689956,0.3856873
0.0221245,0.7280506,0.0624591,0.1873658
0.4713332,0.2877183,0.0176287,0.2233197
0.0370802,0.1152296,0.1457039,0.7019863
0.0807438,0.2548522,0.0793928,0.5850112
0.0407246,0.6560308,0.0532606,0.2499840
0.0528199,0.6448680,0.0436372,0.2586750
0.0598314,0.7189720,0.0390442,0.1821523
0.0598314,0.7189720,0.0390442,0.1821523
0.9869972,0.0017188,0.0000281,0.0112557
0.0232522,0.7697218,0.0483088,0.1587173
0.0094326,0.8209047,0.0556316,0.1140312
0.0000001,0.0115361,0.9673550,0.0211088
0.0000204,0.0420590,0.9124935,0.0454270
0.0476819,0.3663779,0.1702296,0.4157107
0.0001054,0.1084388,0.7461832,0.1452727
0.1558201,0.3379842,0.0327749,0.4734208
0.0036622,0.8863209,0.0453357,0.0646811
0.0251092,0.5172396,0.0913514,0.3662998
0.0493652,0.6706161,0.0480245,0.2319942
0.0177929,0.8299425,0.0406012,0.1116634
0.0598314,0.7189720,0.0390442,0.1821523
0.0029256,0.9037777,0.0413675,0.0519291
0.0000002,0.0135980,0.9583740,0.0280277
0.0183158,0.3165344,0.1525220,0.5126276
0.0174418,0.6719342,0.0751227,0.2355011
0.3656009,0.0562324,0.0140348,0.5641317
0.0464992,0.6868615,0.0484050,0.2182344
0.0080802,0.8077472,0.0572459,0.1269266
0.0305613,0.8668416,0.0127267,0.0898704
0.0209170,0.6027783,0.0833347,0.2929701
0.0117338,0.1115311,0.2722000,0.6045350
0.4749976,0.2029937,0.0048472,0.3171615
0.0010701,0.9221327,0.0417419,0.0350552
0.0016165,0.8742054,0.0577480,0.0664301
0.0008322,0.6437598,0.1069201,0.2484879
0.0361694,0.5624089,0.0904830,0.3109386
0.0034282,0.8993673,0.0415214,0.0556831
0.9221202,0.0291548,0.0002963,0.0484287
0.0749597,0.6259519,0.0502866,0.2488018
0.2259659,0.6162398,0.0060980,0.1516964
0.0074784,0.6828908,0.1014305,0.2082003
0.0108123,0.1401881,0.1760975,0.6729021
0.0231716,0.6606554,0.0915232,0.2246497
0.0308212,0.5410889,0.0690929,0.3589971
0.0112166,0.1492432,0.1874854,0.6520547
0.1333260,0.5553542,0.0379800,0.2733397
0.0009140,0.8604231,0.0610287,0.0776342
0.0138181,0.1297138,0.1597557,0.6967124
0.0095578,0.7908416,0.0584294,0.1411712
0.2701124,0.0597261,0.0369933,0.6331682
0.0045762,0.8435348,0.0562664,0.0956226
0.0000005,0.0099709,0.9622940,0.0277346
0.0598314,0.7189720,0.0390442,0.1821523
0.0168437,0.6965180,0.1057627,0.1808755
0.7191700,0.1507600,0.0013977,0.1286724
0.0527393,0.3114432,0.0827947,0.5530228
0.0312402,0.6702198,0.0568248,0.2417152
0.0098900,0.1235041,0.2295102,0.6370956
0.0747528,0.6589469,0.0447758,0.2215244
0.0049533,0.6668684,0.1494316,0.1787467
0.0134800,0.7976540,0.0556409,0.1332251
0.0159504,0.4952302,0.1705323,0.3182869
0.0362202,0.6784881,0.0595402,0.2257516
0.0221808,0.3988157,0.1045038,0.4744998
0.0923520,0.7071570,0.0228917,0.1775993
0.0195394,0.0797395,0.1712132,0.7295079
0.0087843,0.8545404,0.0448328,0.0918425
0.9179958,0.0255825,0.0004162,0.0560054
0.0101907,0.5217800,0.1688137,0.2992157
0.0478583,0.6623934,0.0494752,0.2402733
0.0593927,0.6049832,0.0542198,0.2814043
0.0146806,0.7639465,0.0567844,0.1645885
0.1441938,0.6683512,0.0224289,0.1650262
0.0236263,0.7514333,0.0398360,0.1851043
0.0002795,0.1177797,0.7140874,0.1678535
0.1034281,0.3153743,0.0585330,0.5226647
0.9773121,0.0054278,0.0000559,0.0172040
0.5725737,0.2269011,0.0043738,0.1961514
0.0065709,0.6956828,0.0840544,0.2136917
0.0000004,0.0138131,0.9570155,0.0291710
0.0202996,0.4311400,0.0845920,0.4639683
0.0504397,0.5263651,0.0653034,0.3578917
0.5222889,0.2500299,0.0052134,0.2224678
0.0154075,0.0133679,0.1496430,0.8215814
0.0060247,0.8102931,0.0802358,0.1034465
0.0088880,0.2125218,0.2222311,0.5563593
0.2535363,0.2503462,0.0569027,0.4392148
0.1413857,0.6477798,0.0174693,0.1933652
0.0213977,0.8541058,0.0246841,0.0998124
